Interval=	2.5e-005 s
ExcelDateTime=	4.5118458043802515e+004	2023-07-11 10:59:34.984538
TimeFormat=	StartOfBlock
DateFormat=	
ChannelTitle=	Sol_EMG	Current
Range=	20.000 mV	200.0 mV
-0.05	0.135625	0.1375
-0.049975	0.135625	0.125
-0.04995	0.135625	0.1125
-0.049925	0.135625	0.1
-0.0499	0.135625	0.03125
-0.049875	0.135625	0.05625
-0.04985	0.135625	0.0875
-0.049825	0.135625	0.075
-0.0498	0.135625	0.11875
-0.049775	0.1575	0.1125
-0.04975	0.1575	0.01875
-0.049725	0.1575	0.15
-0.0497	0.1575	0.09375
-0.049675	0.1575	0.1
-0.04965	0.1575	-0.025
-0.049625	0.1575	0.05625
-0.0496	0.1575	0.01875
-0.049575	0.1575	0.15625
-0.04955	0.1575	-0.025
-0.049525	0.15125	0.075
-0.0495	0.15125	0.1
-0.049475	0.15125	0.025
-0.04945	0.15125	0.00625
-0.049425	0.15125	0.075
-0.0494	0.15125	0.04375
-0.049375	0.15125	-0.0125
-0.04935	0.15125	0.16875
-0.049325	0.15125	0.025
-0.0493	0.15125	0.19375
-0.049275	0.139375	0.08125
-0.04925	0.139375	0.0625
-0.049225	0.139375	0.13125
-0.0492	0.139375	0.0625
-0.049175	0.139375	0.0375
-0.04915	0.139375	0.1625
-0.049125	0.139375	0.11875
-0.0491	0.139375	-0.0375
-0.049075	0.139375	0.00625
-0.04905	0.139375	0.0875
-0.049025	0.13625	0.10625
-0.049	0.13625	0.05625
-0.048975	0.13625	0.05625
-0.04895	0.13625	0.09375
-0.048925	0.13625	0.00625
-0.0489	0.13625	0.11875
-0.048875	0.13625	-0.0125
-0.04885	0.13625	0.1375
-0.048825	0.13625	0.0125
-0.0488	0.13625	0.18125
-0.048775	0.10875	0.05625
-0.04875	0.10875	0.0125
-0.048725	0.10875	0.08125
-0.0487	0.10875	0.03125
-0.048675	0.10875	-0.0125
-0.04865	0.10875	0.10625
-0.048625	0.10875	0.075
-0.0486	0.10875	0.00625
-0.048575	0.10875	0.075
-0.04855	0.10875	0.0875
-0.048525	0.120625	0.01875
-0.0485	0.120625	0.075
-0.048475	0.120625	0.04375
-0.04845	0.120625	0.125
-0.048425	0.120625	0.03125
-0.0484	0.120625	0.1125
-0.048375	0.120625	0.13125
-0.04835	0.120625	0.0625
-0.048325	0.120625	0.09375
-0.0483	0.120625	0.09375
-0.048275	0.1375	-0.00625
-0.04825	0.1375	0.1375
-0.048225	0.1375	0.0375
-0.0482	0.1375	0.025
-0.048175	0.1375	-0.00625
-0.04815	0.1375	0.09375
-0.048125	0.1375	-0.00625
-0.0481	0.1375	0.06875
-0.048075	0.1375	0.10625
-0.04805	0.1375	0.125
-0.048025	0.13625	0.1125
-0.048	0.13625	0.11875
-0.047975	0.13625	0.1375
-0.04795	0.13625	0.125
-0.047925	0.13625	0.175
-0.0479	0.13625	0.08125
-0.047875	0.13625	0.04375
-0.04785	0.13625	0.05
-0.047825	0.13625	0.01875
-0.0478	0.13625	0.0375
-0.047775	0.15875	0.06875
-0.04775	0.15875	0.13125
-0.047725	0.15875	0.10625
-0.0477	0.15875	0.05
-0.047675	0.15875	0.0875
-0.04765	0.15875	0
-0.047625	0.15875	0.0875
-0.0476	0.15875	-0.0125
-0.047575	0.15875	0.03125
-0.04755	0.15875	0.05
-0.047525	0.144375	0.14375
-0.0475	0.144375	-0.05
-0.047475	0.144375	0.075
-0.04745	0.144375	0.0625
-0.047425	0.144375	0.0875
-0.0474	0.144375	-0.0125
-0.047375	0.144375	0.10625
-0.04735	0.144375	0.10625
-0.047325	0.144375	0.11875
-0.0473	0.144375	0.11875
-0.047275	0.134375	0.06875
-0.04725	0.134375	0.09375
-0.047225	0.134375	0.1375
-0.0472	0.134375	0.1375
-0.047175	0.134375	0.05
-0.04715	0.134375	0.1375
-0.047125	0.134375	0.15625
-0.0471	0.134375	0.00625
-0.047075	0.134375	0.03125
-0.04705	0.134375	0.05
-0.047025	0.130625	0.025
-0.047	0.130625	0.13125
-0.046975	0.130625	0.06875
-0.04695	0.130625	0.0875
-0.046925	0.130625	0.08125
-0.0469	0.130625	0.09375
-0.046875	0.130625	0.025
-0.04685	0.130625	0.05
-0.046825	0.130625	0.1
-0.0468	0.130625	0.11875
-0.046775	0.1025	0.15
-0.04675	0.1025	0.03125
-0.046725	0.1025	0
-0.0467	0.1025	0.1125
-0.046675	0.1025	0.13125
-0.04665	0.1025	0.15625
-0.046625	0.1025	0.08125
-0.0466	0.1025	0.0875
-0.046575	0.1025	0.10625
-0.04655	0.1025	0.06875
-0.046525	0.125	0.10625
-0.0465	0.125	0.0125
-0.046475	0.125	0.05
-0.04645	0.125	0.05625
-0.046425	0.125	0.0375
-0.0464	0.125	0.0625
-0.046375	0.125	0.09375
-0.04635	0.125	0.05625
-0.046325	0.125	0.15625
-0.0463	0.125	-0.01875
-0.046275	0.13	-0.0125
-0.04625	0.13	0.06875
-0.046225	0.13	0.1
-0.0462	0.13	0.10625
-0.046175	0.13	0
-0.04615	0.13	0.15
-0.046125	0.13	0.0875
-0.0461	0.13	0.0125
-0.046075	0.13	0.1
-0.04605	0.13	0.1125
-0.046025	0.131875	0.0125
-0.046	0.131875	0
-0.045975	0.131875	0.03125
-0.04595	0.131875	0.08125
-0.045925	0.131875	0.08125
-0.0459	0.131875	0.03125
-0.045875	0.131875	0.0875
-0.04585	0.131875	0.0125
-0.045825	0.131875	0.1
-0.0458	0.131875	0.075
-0.045775	0.16375	0.075
-0.04575	0.16375	-0.025
-0.045725	0.16375	0.05
-0.0457	0.16375	0.125
-0.045675	0.16375	0.06875
-0.04565	0.16375	0.175
-0.045625	0.16375	0.14375
-0.0456	0.16375	-0.025
-0.045575	0.16375	0.04375
-0.04555	0.16375	0.04375
-0.045525	0.138125	0.125
-0.0455	0.138125	0.00625
-0.045475	0.138125	0.00625
-0.04545	0.138125	0.0375
-0.045425	0.138125	-0.03125
-0.0454	0.138125	0.08125
-0.045375	0.138125	0.125
-0.04535	0.138125	0.1625
-0.045325	0.138125	-0.0125
-0.0453	0.138125	0.2375
-0.045275	0.134375	0.11875
-0.04525	0.134375	0.0625
-0.045225	0.134375	0.11875
-0.0452	0.134375	0.09375
-0.045175	0.134375	0.00625
-0.04515	0.134375	0.0125
-0.045125	0.134375	0.06875
-0.0451	0.134375	0.0375
-0.045075	0.134375	0.01875
-0.04505	0.134375	0.05
-0.045025	0.133125	0.10625
-0.045	0.133125	0.05
-0.044975	0.133125	0.08125
-0.04495	0.133125	0.04375
-0.044925	0.133125	0.00625
-0.0449	0.133125	-0.00625
-0.044875	0.133125	0.1125
-0.04485	0.133125	0.08125
-0.044825	0.133125	0.10625
-0.0448	0.133125	0.125
-0.044775	0.099375	0.03125
-0.04475	0.099375	0.1125
-0.044725	0.099375	0.10625
-0.0447	0.099375	0.0125
-0.044675	0.099375	0.05625
-0.04465	0.099375	0.05
-0.044625	0.099375	0.04375
-0.0446	0.099375	0.06875
-0.044575	0.099375	-0.00625
-0.04455	0.099375	-0.025
-0.044525	0.12375	0.09375
-0.0445	0.12375	0.04375
-0.044475	0.12375	0.025
-0.04445	0.12375	0.0875
-0.044425	0.12375	-0.01875
-0.0444	0.12375	0.04375
-0.044375	0.12375	0.11875
-0.04435	0.12375	0.09375
-0.044325	0.12375	0.03125
-0.0443	0.12375	0.0875
-0.044275	0.126875	0.00625
-0.04425	0.126875	0.14375
-0.044225	0.126875	-0.04375
-0.0442	0.126875	0.125
-0.044175	0.126875	0.025
-0.04415	0.126875	0.075
-0.044125	0.126875	0.025
-0.0441	0.126875	0.05
-0.044075	0.126875	0.1625
-0.04405	0.126875	0.0375
-0.044025	0.1325	0.11875
-0.044	0.1325	0.09375
-0.043975	0.1325	0.08125
-0.04395	0.1325	0.0625
-0.043925	0.1325	0.1625
-0.0439	0.1325	0.1125
-0.043875	0.1325	0.08125
-0.04385	0.1325	0.09375
-0.043825	0.1325	0.10625
-0.0438	0.1325	0.05
-0.043775	0.155625	0.06875
-0.04375	0.155625	0.09375
-0.043725	0.155625	0.08125
-0.0437	0.155625	0.20625
-0.043675	0.155625	0.125
-0.04365	0.155625	0.1125
-0.043625	0.155625	0.0375
-0.0436	0.155625	0.06875
-0.043575	0.155625	-0.0625
-0.04355	0.155625	0.03125
-0.043525	0.13125	0.05625
-0.0435	0.13125	0.13125
-0.043475	0.13125	0.1375
-0.04345	0.13125	0.11875
-0.043425	0.13125	0.05
-0.0434	0.13125	0.075
-0.043375	0.13125	0.14375
-0.04335	0.13125	0
-0.043325	0.13125	0.10625
-0.0433	0.13125	0.125
-0.043275	0.128125	0.04375
-0.04325	0.128125	0.0375
-0.043225	0.128125	0.01875
-0.0432	0.128125	0.11875
-0.043175	0.128125	0.075
-0.04315	0.128125	0.0625
-0.043125	0.128125	0.10625
-0.0431	0.128125	0.01875
-0.043075	0.128125	0.0375
-0.04305	0.128125	0.04375
-0.043025	0.11375	0.0875
-0.043	0.11375	0.0875
-0.042975	0.11375	0.0875
-0.04295	0.11375	0.10625
-0.042925	0.11375	0.06875
-0.0429	0.11375	0.11875
-0.042875	0.11375	0.11875
-0.04285	0.11375	0.05625
-0.042825	0.11375	0.14375
-0.0428	0.11375	0.09375
-0.042775	0.09875	0.04375
-0.04275	0.09875	0.175
-0.042725	0.09875	0.03125
-0.0427	0.09875	0.05625
-0.042675	0.09875	0.03125
-0.04265	0.09875	0.025
-0.042625	0.09875	0.0875
-0.0426	0.09875	0.05
-0.042575	0.09875	0.00625
-0.04255	0.09875	-0.0125
-0.042525	0.129375	0.0125
-0.0425	0.129375	0.11875
-0.042475	0.129375	0.1375
-0.04245	0.129375	0.075
-0.042425	0.129375	0.10625
-0.0424	0.129375	0.01875
-0.042375	0.129375	0.1625
-0.04235	0.129375	0.1125
-0.042325	0.129375	0.08125
-0.0423	0.129375	0.0875
-0.042275	0.13	0.15625
-0.04225	0.13	0.10625
-0.042225	0.13	0.075
-0.0422	0.13	0.01875
-0.042175	0.13	0.11875
-0.04215	0.13	0.0875
-0.042125	0.13	0.025
-0.0421	0.13	0.13125
-0.042075	0.13	0.15
-0.04205	0.13	0.0625
-0.042025	0.145	0.14375
-0.042	0.145	0.0875
-0.041975	0.145	0.08125
-0.04195	0.145	0.025
-0.041925	0.145	0.1
-0.0419	0.145	0.0875
-0.041875	0.145	0.00625
-0.04185	0.145	0.125
-0.041825	0.145	0.025
-0.0418	0.145	0.13125
-0.041775	0.158125	0.0875
-0.04175	0.158125	0.10625
-0.041725	0.158125	0.06875
-0.0417	0.158125	0.1375
-0.041675	0.158125	0.0125
-0.04165	0.158125	0.09375
-0.041625	0.158125	0.09375
-0.0416	0.158125	0.075
-0.041575	0.158125	0.0625
-0.04155	0.158125	0.10625
-0.041525	0.12875	0.24375
-0.0415	0.12875	0.1
-0.041475	0.12875	0.1
-0.04145	0.12875	0.15
-0.041425	0.12875	0.2
-0.0414	0.12875	0.0125
-0.041375	0.12875	0.00625
-0.04135	0.12875	0.01875
-0.041325	0.12875	0.03125
-0.0413	0.12875	0.11875
-0.041275	0.126875	0.05
-0.04125	0.126875	0.15625
-0.041225	0.126875	0.00625
-0.0412	0.126875	0.01875
-0.041175	0.126875	0.075
-0.04115	0.126875	0.025
-0.041125	0.126875	0.04375
-0.0411	0.126875	0.06875
-0.041075	0.126875	0.1125
-0.04105	0.126875	0.05625
-0.041025	0.111875	0.125
-0.041	0.111875	0.15625
-0.040975	0.111875	0.14375
-0.04095	0.111875	0.0375
-0.040925	0.111875	0.03125
-0.0409	0.111875	0
-0.040875	0.111875	0.05
-0.04085	0.111875	0.15625
-0.040825	0.111875	0.11875
-0.0408	0.111875	0.0375
-0.040775	0.11125	0.06875
-0.04075	0.11125	0.04375
-0.040725	0.11125	0.08125
-0.0407	0.11125	0.06875
-0.040675	0.11125	0.1
-0.04065	0.11125	0.05
-0.040625	0.11125	0.04375
-0.0406	0.11125	0.075
-0.040575	0.11125	0.1
-0.04055	0.11125	0.05625
-0.040525	0.131875	0.08125
-0.0405	0.131875	-0.0125
-0.040475	0.131875	0.075
-0.04045	0.131875	0.08125
-0.040425	0.131875	0.09375
-0.0404	0.131875	0.04375
-0.040375	0.131875	0.1
-0.04035	0.131875	-0.01875
-0.040325	0.131875	0.1
-0.0403	0.131875	0.0875
-0.040275	0.128125	0.03125
-0.04025	0.128125	0.00625
-0.040225	0.128125	0.04375
-0.0402	0.128125	0.04375
-0.040175	0.128125	0.06875
-0.04015	0.128125	0.00625
-0.040125	0.128125	0.04375
-0.0401	0.128125	0.06875
-0.040075	0.128125	0.10625
-0.04005	0.128125	0.08125
-0.040025	0.154375	0.00625
-0.04	0.154375	0.13125
-0.039975	0.154375	0.15
-0.03995	0.154375	0.1
-0.039925	0.154375	0.05625
-0.0399	0.154375	0.0625
-0.039875	0.154375	0.0125
-0.03985	0.154375	0.03125
-0.039825	0.154375	0.075
-0.0398	0.154375	-0.0125
-0.039775	0.146875	0.0625
-0.03975	0.146875	0.13125
-0.039725	0.146875	0.075
-0.0397	0.146875	0.0375
-0.039675	0.146875	0.09375
-0.03965	0.146875	0.05
-0.039625	0.146875	0.10625
-0.0396	0.146875	0.13125
-0.039575	0.146875	0.0125
-0.03955	0.146875	0.14375
-0.039525	0.1325	0.04375
-0.0395	0.1325	0.00625
-0.039475	0.1325	0.11875
-0.03945	0.1325	0.08125
-0.039425	0.1325	0.08125
-0.0394	0.1325	0.04375
-0.039375	0.1325	0.1
-0.03935	0.1325	0.0375
-0.039325	0.1325	0
-0.0393	0.1325	-0.08125
-0.039275	0.13	0.10625
-0.03925	0.13	0.04375
-0.039225	0.13	0.03125
-0.0392	0.13	0.06875
-0.039175	0.13	0.10625
-0.03915	0.13	0.10625
-0.039125	0.13	0.075
-0.0391	0.13	0.03125
-0.039075	0.13	0.08125
-0.03905	0.13	0.10625
-0.039025	0.101875	0
-0.039	0.101875	0.0125
-0.038975	0.101875	0.05625
-0.03895	0.101875	0.10625
-0.038925	0.101875	0.10625
-0.0389	0.101875	-0.08125
-0.038875	0.101875	0.14375
-0.03885	0.101875	0.13125
-0.038825	0.101875	0.1125
-0.0388	0.101875	0.06875
-0.038775	0.11	0.0625
-0.03875	0.11	0.13125
-0.038725	0.11	0.05
-0.0387	0.11	0.05625
-0.038675	0.11	-0.025
-0.03865	0.11	0.0875
-0.038625	0.11	0.11875
-0.0386	0.11	0.0375
-0.038575	0.11	0.09375
-0.03855	0.11	0.05625
-0.038525	0.12875	0.04375
-0.0385	0.12875	0
-0.038475	0.12875	0.03125
-0.03845	0.12875	0.0875
-0.038425	0.12875	0.0875
-0.0384	0.12875	-0.025
-0.038375	0.12875	0.00625
-0.03835	0.12875	0.08125
-0.038325	0.12875	0.1625
-0.0383	0.12875	0.01875
-0.038275	0.13	0.10625
-0.03825	0.13	0.05625
-0.038225	0.13	0.1
-0.0382	0.13	0.11875
-0.038175	0.13	0.10625
-0.03815	0.13	0.1
-0.038125	0.13	0.04375
-0.0381	0.13	0.075
-0.038075	0.13	0.14375
-0.03805	0.13	0.13125
-0.038025	0.1575	0.1125
-0.038	0.1575	0.04375
-0.037975	0.1575	0.13125
-0.03795	0.1575	0.10625
-0.037925	0.1575	0.09375
-0.0379	0.1575	0.06875
-0.037875	0.1575	0.0375
-0.03785	0.1575	0.06875
-0.037825	0.1575	0.06875
-0.0378	0.1575	0.0875
-0.037775	0.140625	0.1
-0.03775	0.140625	0.03125
-0.037725	0.140625	0.00625
-0.0377	0.140625	0.13125
-0.037675	0.140625	0.05625
-0.03765	0.140625	0.06875
-0.037625	0.140625	0.10625
-0.0376	0.140625	0.0875
-0.037575	0.140625	0.1125
-0.03755	0.140625	0.125
-0.037525	0.131875	0.06875
-0.0375	0.131875	0.05
-0.037475	0.131875	0.0875
-0.03745	0.131875	0.0375
-0.037425	0.131875	-0.03125
-0.0374	0.131875	0.04375
-0.037375	0.131875	0
-0.03735	0.131875	0.1
-0.037325	0.131875	0.0375
-0.0373	0.131875	0.0125
-0.037275	0.13125	0.10625
-0.03725	0.13125	0.0875
-0.037225	0.13125	0.125
-0.0372	0.13125	0.125
-0.037175	0.13125	0.05
-0.03715	0.13125	0.1
-0.037125	0.13125	0.09375
-0.0371	0.13125	0.175
-0.037075	0.13125	0.025
-0.03705	0.13125	0.08125
-0.037025	0.09625	0.11875
-0.037	0.09625	0.03125
-0.036975	0.09625	0.15
-0.03695	0.09625	0.125
-0.036925	0.09625	0.11875
-0.0369	0.09625	0.125
-0.036875	0.09625	0.0375
-0.03685	0.09625	0.0375
-0.036825	0.09625	0.05
-0.0368	0.09625	0.10625
-0.036775	0.1175	0.03125
-0.03675	0.1175	0.01875
-0.036725	0.1175	0.0125
-0.0367	0.1175	0.05625
-0.036675	0.1175	0.125
-0.03665	0.1175	0.05
-0.036625	0.1175	0.05
-0.0366	0.1175	0.09375
-0.036575	0.1175	0.05
-0.03655	0.1175	0.1
-0.036525	0.130625	0.125
-0.0365	0.130625	0.0625
-0.036475	0.130625	0.075
-0.03645	0.130625	0.125
-0.036425	0.130625	0.025
-0.0364	0.130625	0.09375
-0.036375	0.130625	0.0375
-0.03635	0.130625	-0.05
-0.036325	0.130625	0.0375
-0.0363	0.130625	0.0375
-0.036275	0.13125	0.04375
-0.03625	0.13125	0.1125
-0.036225	0.13125	0.05625
-0.0362	0.13125	0.06875
-0.036175	0.13125	0.0875
-0.03615	0.13125	0.10625
-0.036125	0.13125	-0.0375
-0.0361	0.13125	0.00625
-0.036075	0.13125	0.08125
-0.03605	0.13125	0.10625
-0.036025	0.166875	0.0625
-0.036	0.166875	0.04375
-0.035975	0.166875	0.1
-0.03595	0.166875	0.0625
-0.035925	0.166875	0.14375
-0.0359	0.166875	0.10625
-0.035875	0.166875	0.0125
-0.03585	0.166875	0.125
-0.035825	0.166875	0.0875
-0.0358	0.166875	0.05625
-0.035775	0.144375	0.08125
-0.03575	0.144375	0.01875
-0.035725	0.144375	0.09375
-0.0357	0.144375	0.1
-0.035675	0.144375	0.16875
-0.03565	0.144375	0.09375
-0.035625	0.144375	0.08125
-0.0356	0.144375	0.13125
-0.035575	0.144375	0.10625
-0.03555	0.144375	0.14375
-0.035525	0.136875	0.13125
-0.0355	0.136875	0.075
-0.035475	0.136875	0.18125
-0.03545	0.136875	0.04375
-0.035425	0.136875	0.0625
-0.0354	0.136875	0.1125
-0.035375	0.136875	0.09375
-0.03535	0.136875	0.11875
-0.035325	0.136875	0.11875
-0.0353	0.136875	0.125
-0.035275	0.13375	0.09375
-0.03525	0.13375	0.10625
-0.035225	0.13375	0.08125
-0.0352	0.13375	0.05
-0.035175	0.13375	0.125
-0.03515	0.13375	0.1375
-0.035125	0.13375	0.11875
-0.0351	0.13375	0.09375
-0.035075	0.13375	0.06875
-0.03505	0.13375	0.0625
-0.035025	0.104375	0.01875
-0.035	0.104375	0.11875
-0.034975	0.104375	0.09375
-0.03495	0.104375	0.05
-0.034925	0.104375	0.08125
-0.0349	0.104375	0.0875
-0.034875	0.104375	0.10625
-0.03485	0.104375	0.09375
-0.034825	0.104375	0.09375
-0.0348	0.104375	0.075
-0.034775	0.12875	0.06875
-0.03475	0.12875	0.08125
-0.034725	0.12875	0.04375
-0.0347	0.12875	0.05625
-0.034675	0.12875	0.1
-0.03465	0.12875	0.05625
-0.034625	0.12875	0.08125
-0.0346	0.12875	0.1125
-0.034575	0.12875	0.13125
-0.03455	0.12875	0.025
-0.034525	0.13125	0.1125
-0.0345	0.13125	0.125
-0.034475	0.13125	0.04375
-0.03445	0.13125	0.06875
-0.034425	0.13125	0.09375
-0.0344	0.13125	0.08125
-0.034375	0.13125	0.0375
-0.03435	0.13125	0.06875
-0.034325	0.13125	0.0625
-0.0343	0.13125	0.08125
-0.034275	0.1375	0.08125
-0.03425	0.1375	0.1125
-0.034225	0.1375	0.125
-0.0342	0.1375	0.01875
-0.034175	0.1375	0.10625
-0.03415	0.1375	0.04375
-0.034125	0.1375	0.0125
-0.0341	0.1375	0.11875
-0.034075	0.1375	0.09375
-0.03405	0.1375	0.0875
-0.034025	0.165625	0.03125
-0.034	0.165625	0.09375
-0.033975	0.165625	-0.00625
-0.03395	0.165625	0.125
-0.033925	0.165625	0.1375
-0.0339	0.165625	0.01875
-0.033875	0.165625	0.0125
-0.03385	0.165625	0.025
-0.033825	0.165625	0.0375
-0.0338	0.165625	0.08125
-0.033775	0.14	0.025
-0.03375	0.14	0.15
-0.033725	0.14	0.16875
-0.0337	0.14	0.03125
-0.033675	0.14	0.0625
-0.03365	0.14	0.06875
-0.033625	0.14	0.06875
-0.0336	0.14	0.175
-0.033575	0.14	0.11875
-0.03355	0.14	0.06875
-0.033525	0.130625	0.09375
-0.0335	0.130625	0.075
-0.033475	0.130625	0.05
-0.03345	0.130625	0.05625
-0.033425	0.130625	0.1
-0.0334	0.130625	0.0125
-0.033375	0.130625	0.10625
-0.03335	0.130625	0.1125
-0.033325	0.130625	0
-0.0333	0.130625	0.04375
-0.033275	0.125	0.175
-0.03325	0.125	0.03125
-0.033225	0.125	0.08125
-0.0332	0.125	0.1125
-0.033175	0.125	0.10625
-0.03315	0.125	-0.0125
-0.033125	0.125	0.08125
-0.0331	0.125	0.125
-0.033075	0.125	0.10625
-0.03305	0.125	0.0875
-0.033025	0.10375	0.0625
-0.033	0.10375	0.00625
-0.032975	0.10375	0.00625
-0.03295	0.10375	0.0875
-0.032925	0.10375	0.06875
-0.0329	0.10375	0.05
-0.032875	0.10375	0.0625
-0.03285	0.10375	0.15
-0.032825	0.10375	0.0375
-0.0328	0.10375	0.1125
-0.032775	0.126875	0.11875
-0.03275	0.126875	0.00625
-0.032725	0.126875	0.13125
-0.0327	0.126875	0.0125
-0.032675	0.126875	0.05625
-0.03265	0.126875	0.06875
-0.032625	0.126875	0.15
-0.0326	0.126875	0.10625
-0.032575	0.126875	0.06875
-0.03255	0.126875	0.15625
-0.032525	0.134375	0.0375
-0.0325	0.134375	0.1
-0.032475	0.134375	0.11875
-0.03245	0.134375	0.03125
-0.032425	0.134375	0.09375
-0.0324	0.134375	0.10625
-0.032375	0.134375	0.025
-0.03235	0.134375	0.125
-0.032325	0.134375	0.13125
-0.0323	0.134375	0.05625
-0.032275	0.15	0.025
-0.03225	0.15	0.05
-0.032225	0.15	0.06875
-0.0322	0.15	0.15
-0.032175	0.15	0.175
-0.03215	0.15	0.11875
-0.032125	0.15	0.05
-0.0321	0.15	0.06875
-0.032075	0.15	0.125
-0.03205	0.15	0.11875
-0.032025	0.159375	0.0875
-0.032	0.159375	0.1125
-0.031975	0.159375	0.09375
-0.03195	0.159375	0.11875
-0.031925	0.159375	0.05625
-0.0319	0.159375	0.09375
-0.031875	0.159375	0.06875
-0.03185	0.159375	0.11875
-0.031825	0.159375	0.21875
-0.0318	0.159375	0.1
-0.031775	0.136875	0.05625
-0.03175	0.136875	0.11875
-0.031725	0.136875	0.11875
-0.0317	0.136875	0.05625
-0.031675	0.136875	0.11875
-0.03165	0.136875	0.11875
-0.031625	0.136875	0.18125
-0.0316	0.136875	0.04375
-0.031575	0.136875	0.01875
-0.03155	0.136875	0.10625
-0.031525	0.134375	0.10625
-0.0315	0.134375	0.1
-0.031475	0.134375	0.06875
-0.03145	0.134375	0.1125
-0.031425	0.134375	0.1875
-0.0314	0.134375	0.0625
-0.031375	0.134375	0.13125
-0.03135	0.134375	0.1125
-0.031325	0.134375	-0.0125
-0.0313	0.134375	0.0625
-0.031275	0.11125	0.0875
-0.03125	0.11125	0.06875
-0.031225	0.11125	0.06875
-0.0312	0.11125	0.04375
-0.031175	0.11125	0.1
-0.03115	0.11125	0.11875
-0.031125	0.11125	0.0625
-0.0311	0.11125	0.075
-0.031075	0.11125	0.13125
-0.03105	0.11125	0.14375
-0.031025	0.10875	0.1
-0.031	0.10875	0.0875
-0.030975	0.10875	0.03125
-0.03095	0.10875	0.0625
-0.030925	0.10875	0.08125
-0.0309	0.10875	0.1375
-0.030875	0.10875	0.05625
-0.03085	0.10875	0.1375
-0.030825	0.10875	0.04375
-0.0308	0.10875	0.06875
-0.030775	0.134375	0.04375
-0.03075	0.134375	0.0875
-0.030725	0.134375	0.125
-0.0307	0.134375	0.0125
-0.030675	0.134375	0.06875
-0.03065	0.134375	0.06875
-0.030625	0.134375	0.11875
-0.0306	0.134375	0.08125
-0.030575	0.134375	0.04375
-0.03055	0.134375	0.08125
-0.030525	0.128125	0.19375
-0.0305	0.128125	0.08125
-0.030475	0.128125	0.00625
-0.03045	0.128125	0.0625
-0.030425	0.128125	0.1375
-0.0304	0.128125	0.0625
-0.030375	0.128125	0.06875
-0.03035	0.128125	0.11875
-0.030325	0.128125	0.21875
-0.0303	0.128125	0.1125
-0.030275	0.151875	0.15625
-0.03025	0.151875	0.075
-0.030225	0.151875	0.06875
-0.0302	0.151875	0.10625
-0.030175	0.151875	0.0875
-0.03015	0.151875	0.14375
-0.030125	0.151875	0.1125
-0.0301	0.151875	0.15625
-0.030075	0.151875	0.0625
-0.03005	0.151875	0.0625
-0.030025	0.150625	0.06875
-0.03	0.150625	0.04375
-0.029975	0.150625	0.09375
-0.02995	0.150625	0.14375
-0.029925	0.150625	0.03125
-0.0299	0.150625	-0.03125
-0.029875	0.150625	0.0875
-0.02985	0.150625	0.0625
-0.029825	0.150625	-0.0375
-0.0298	0.150625	0.075
-0.029775	0.135	0.08125
-0.02975	0.135	0.03125
-0.029725	0.135	0.1375
-0.0297	0.135	0.09375
-0.029675	0.135	0.05
-0.02965	0.135	0.09375
-0.029625	0.135	0.0125
-0.0296	0.135	0.15
-0.029575	0.135	0.0875
-0.02955	0.135	0.1375
-0.029525	0.1275	0.10625
-0.0295	0.1275	0.025
-0.029475	0.1275	0.11875
-0.02945	0.1275	0.10625
-0.029425	0.1275	0.075
-0.0294	0.1275	0.13125
-0.029375	0.1275	0.075
-0.02935	0.1275	0.125
-0.029325	0.1275	0.0875
-0.0293	0.1275	0.13125
-0.029275	0.096875	0.08125
-0.02925	0.096875	0.25
-0.029225	0.096875	0.20625
-0.0292	0.096875	0.14375
-0.029175	0.096875	0.0875
-0.02915	0.096875	0.125
-0.029125	0.096875	0.0625
-0.0291	0.096875	-0.025
-0.029075	0.096875	0.175
-0.02905	0.096875	0.075
-0.029025	0.104375	0.05
-0.029	0.104375	-0.00625
-0.028975	0.104375	0.06875
-0.02895	0.104375	0.2125
-0.028925	0.104375	-0.00625
-0.0289	0.104375	-0.0125
-0.028875	0.104375	0.11875
-0.02885	0.104375	0.1
-0.028825	0.104375	0.13125
-0.0288	0.104375	0.03125
-0.028775	0.123125	0.15
-0.02875	0.123125	0.04375
-0.028725	0.123125	0.0375
-0.0287	0.123125	0.05625
-0.028675	0.123125	0.075
-0.02865	0.123125	0.10625
-0.028625	0.123125	0.06875
-0.0286	0.123125	0.10625
-0.028575	0.123125	0.1
-0.02855	0.123125	0.09375
-0.028525	0.125	0.06875
-0.0285	0.125	0.15625
-0.028475	0.125	0.09375
-0.02845	0.125	0.075
-0.028425	0.125	0.1125
-0.0284	0.125	0.15
-0.028375	0.125	0.0875
-0.02835	0.125	0.13125
-0.028325	0.125	0.20625
-0.0283	0.125	0.15
-0.028275	0.156875	0.16875
-0.02825	0.156875	0.1375
-0.028225	0.156875	0.16875
-0.0282	0.156875	0.225
-0.028175	0.156875	0.11875
-0.02815	0.156875	0.01875
-0.028125	0.156875	0.19375
-0.0281	0.156875	0.1875
-0.028075	0.156875	0.14375
-0.02805	0.156875	0.2125
-0.028025	0.13625	0.24375
-0.028	0.13625	0.1625
-0.027975	0.13625	0.16875
-0.02795	0.13625	0.21875
-0.027925	0.13625	0.2375
-0.0279	0.13625	0.28125
-0.027875	0.13625	0.1625
-0.02785	0.13625	0.2625
-0.027825	0.13625	0.225
-0.0278	0.13625	0.25
-0.027775	0.125625	0.2125
-0.02775	0.125625	0.2
-0.027725	0.125625	0.2
-0.0277	0.125625	0.3
-0.027675	0.125625	0.24375
-0.02765	0.125625	0.21875
-0.027625	0.125625	0.25
-0.0276	0.125625	0.1375
-0.027575	0.125625	0.31875
-0.02755	0.125625	0.175
-0.027525	0.128125	0.3
-0.0275	0.128125	0.24375
-0.027475	0.128125	0.30625
-0.02745	0.128125	0.2625
-0.027425	0.128125	0.20625
-0.0274	0.128125	0.25
-0.027375	0.128125	0.26875
-0.02735	0.128125	0.125
-0.027325	0.128125	0.16875
-0.0273	0.128125	0.175
-0.027275	0.094375	0.30625
-0.02725	0.094375	0.225
-0.027225	0.094375	0.29375
-0.0272	0.094375	0.29375
-0.027175	0.094375	0.26875
-0.02715	0.094375	0.2125
-0.027125	0.094375	0.18125
-0.0271	0.094375	0.18125
-0.027075	0.094375	0.2375
-0.02705	0.094375	0.19375
-0.027025	0.1125	0.26875
-0.027	0.1125	0.31875
-0.026975	0.1125	0.16875
-0.02695	0.1125	0.30625
-0.026925	0.1125	0.34375
-0.0269	0.1125	0.24375
-0.026875	0.1125	0.21875
-0.02685	0.1125	0.28125
-0.026825	0.1125	0.2875
-0.0268	0.1125	0.275
-0.026775	0.123125	0.20625
-0.02675	0.123125	0.2375
-0.026725	0.123125	0.28125
-0.0267	0.123125	0.225
-0.026675	0.123125	0.26875
-0.02665	0.123125	0.3375
-0.026625	0.123125	0.2
-0.0266	0.123125	0.1875
-0.026575	0.123125	0.23125
-0.02655	0.123125	0.30625
-0.026525	0.125	0.2625
-0.0265	0.125	0.24375
-0.026475	0.125	0.3375
-0.02645	0.125	0.24375
-0.026425	0.125	0.24375
-0.0264	0.125	0.21875
-0.026375	0.125	0.31875
-0.02635	0.125	0.31875
-0.026325	0.125	0.2875
-0.0263	0.125	0.2375
-0.026275	0.1525	0.125
-0.02625	0.1525	0.275
-0.026225	0.1525	0.21875
-0.0262	0.1525	0.30625
-0.026175	0.1525	0.3
-0.02615	0.1525	0.24375
-0.026125	0.1525	0.275
-0.0261	0.1525	0.2
-0.026075	0.1525	0.3125
-0.02605	0.1525	0.2375
-0.026025	0.131875	0.33125
-0.026	0.131875	0.25625
-0.025975	0.131875	0.21875
-0.02595	0.131875	0.28125
-0.025925	0.131875	0.2
-0.0259	0.131875	0.23125
-0.025875	0.131875	0.25
-0.02585	0.131875	0.3125
-0.025825	0.131875	0.2625
-0.0258	0.131875	0.25
-0.025775	0.124375	0.26875
-0.02575	0.124375	0.2
-0.025725	0.124375	0.28125
-0.0257	0.124375	0.34375
-0.025675	0.124375	0.26875
-0.02565	0.124375	0.2375
-0.025625	0.124375	0.24375
-0.0256	0.124375	0.20625
-0.025575	0.124375	0.20625
-0.02555	0.124375	0.225
-0.025525	0.119375	0.18125
-0.0255	0.119375	0.2125
-0.025475	0.119375	0.2
-0.02545	0.119375	0.3125
-0.025425	0.119375	0.23125
-0.0254	0.119375	0.25625
-0.025375	0.119375	0.3125
-0.02535	0.119375	0.25
-0.025325	0.119375	0.24375
-0.0253	0.119375	0.175
-0.025275	0.09375	0.25
-0.02525	0.09375	0.26875
-0.025225	0.09375	0.2625
-0.0252	0.09375	0.25
-0.025175	0.09375	0.1625
-0.02515	0.09375	0.24375
-0.025125	0.09375	0.125
-0.0251	0.09375	0.1625
-0.025075	0.09375	0.15625
-0.02505	0.09375	0.25
-0.025025	0.121875	0.13125
-0.025	0.121875	0.21875
-0.024975	0.121875	0.275
-0.02495	0.121875	0.2375
-0.024925	0.121875	0.2375
-0.0249	0.121875	0.15625
-0.024875	0.121875	0.2125
-0.02485	0.121875	0.2
-0.024825	0.121875	0.21875
-0.0248	0.121875	0.14375
-0.024775	0.1275	0.24375
-0.02475	0.1275	0.175
-0.024725	0.1275	0.25
-0.0247	0.1275	0.275
-0.024675	0.1275	0.16875
-0.02465	0.1275	0.1625
-0.024625	0.1275	0.2125
-0.0246	0.1275	0.23125
-0.024575	0.1275	0.2
-0.02455	0.1275	0.21875
-0.024525	0.131875	0.15
-0.0245	0.131875	0.28125
-0.024475	0.131875	0.1625
-0.02445	0.131875	0.19375
-0.024425	0.131875	0.1625
-0.0244	0.131875	0.175
-0.024375	0.131875	0.16875
-0.02435	0.131875	0.15
-0.024325	0.131875	0.20625
-0.0243	0.131875	0.15625
-0.024275	0.154375	0.21875
-0.02425	0.154375	0.25
-0.024225	0.154375	0.23125
-0.0242	0.154375	0.26875
-0.024175	0.154375	0.30625
-0.02415	0.154375	0.1375
-0.024125	0.154375	0.13125
-0.0241	0.154375	0.26875
-0.024075	0.154375	0.175
-0.02405	0.154375	0.21875
-0.024025	0.133125	0.225
-0.024	0.133125	0.1875
-0.023975	0.133125	0.29375
-0.02395	0.133125	0.1625
-0.023925	0.133125	0.21875
-0.0239	0.133125	0.23125
-0.023875	0.133125	0.11875
-0.02385	0.133125	0.21875
-0.023825	0.133125	0.2
-0.0238	0.133125	0.2375
-0.023775	0.1275	0.225
-0.02375	0.1275	0.2125
-0.023725	0.1275	0.2
-0.0237	0.1275	0.31875
-0.023675	0.1275	0.15
-0.02365	0.1275	0.16875
-0.023625	0.1275	0.19375
-0.0236	0.1275	0.2375
-0.023575	0.1275	0.2125
-0.02355	0.1275	0.2125
-0.023525	0.11375	0.25
-0.0235	0.11375	0.20625
-0.023475	0.11375	0.16875
-0.02345	0.11375	0.13125
-0.023425	0.11375	0.18125
-0.0234	0.11375	0.23125
-0.023375	0.11375	0.1625
-0.02335	0.11375	0.175
-0.023325	0.11375	0.21875
-0.0233	0.11375	0.19375
-0.023275	0.094375	0.24375
-0.02325	0.094375	0.16875
-0.023225	0.094375	0.15625
-0.0232	0.094375	0.275
-0.023175	0.094375	0.24375
-0.02315	0.094375	0.26875
-0.023125	0.094375	0.26875
-0.0231	0.094375	0.2625
-0.023075	0.094375	0.24375
-0.02305	0.094375	0.19375
-0.023025	0.121875	0.10625
-0.023	0.121875	0.15
-0.022975	0.121875	0.1875
-0.02295	0.121875	0.1625
-0.022925	0.121875	0.2375
-0.0229	0.121875	0.21875
-0.022875	0.121875	0.14375
-0.02285	0.121875	0.1625
-0.022825	0.121875	0.1625
-0.0228	0.121875	0.2125
-0.022775	0.126875	0.18125
-0.02275	0.126875	0.275
-0.022725	0.126875	0.23125
-0.0227	0.126875	0.15625
-0.022675	0.126875	0.18125
-0.02265	0.126875	0.15625
-0.022625	0.126875	0.1125
-0.0226	0.126875	0.1625
-0.022575	0.126875	0.19375
-0.02255	0.126875	0.225
-0.022525	0.14125	0.1875
-0.0225	0.14125	0.2
-0.022475	0.14125	0.25625
-0.02245	0.14125	0.125
-0.022425	0.14125	0.15625
-0.0224	0.14125	0.13125
-0.022375	0.14125	0.15
-0.02235	0.14125	0.175
-0.022325	0.14125	0.11875
-0.0223	0.14125	0.125
-0.022275	0.15375	0.20625
-0.02225	0.15375	0.15625
-0.022225	0.15375	0.2
-0.0222	0.15375	0.15625
-0.022175	0.15375	0.175
-0.02215	0.15375	0.24375
-0.022125	0.15375	0.175
-0.0221	0.15375	0.18125
-0.022075	0.15375	0.25
-0.02205	0.15375	0.2125
-0.022025	0.133125	0.2
-0.022	0.133125	0.175
-0.021975	0.133125	0.175
-0.02195	0.133125	0.2125
-0.021925	0.133125	0.24375
-0.0219	0.133125	0.16875
-0.021875	0.133125	0.2125
-0.02185	0.133125	0.18125
-0.021825	0.133125	0.15
-0.0218	0.133125	0.0625
-0.021775	0.133125	0.2375
-0.02175	0.133125	0.21875
-0.021725	0.133125	0.1875
-0.0217	0.133125	0.14375
-0.021675	0.133125	0.10625
-0.02165	0.133125	0.25625
-0.021625	0.133125	0.15625
-0.0216	0.133125	0.14375
-0.021575	0.133125	0.15625
-0.02155	0.133125	0.18125
-0.021525	0.11125	0.18125
-0.0215	0.11125	0.225
-0.021475	0.11125	0.11875
-0.02145	0.11125	0.21875
-0.021425	0.11125	0.16875
-0.0214	0.11125	0.19375
-0.021375	0.11125	0.1125
-0.02135	0.11125	0.15
-0.021325	0.11125	0.14375
-0.0213	0.11125	0.25625
-0.021275	0.10375	0.21875
-0.02125	0.10375	0.2625
-0.021225	0.10375	0.19375
-0.0212	0.10375	0.13125
-0.021175	0.10375	0.05625
-0.02115	0.10375	0.21875
-0.021125	0.10375	0.1
-0.0211	0.10375	0.2
-0.021075	0.10375	0.15625
-0.02105	0.10375	0.11875
-0.021025	0.1225	0.21875
-0.021	0.1225	0.15
-0.020975	0.1225	0.1125
-0.02095	0.1225	0.15
-0.020925	0.1225	0.2375
-0.0209	0.1225	0.2375
-0.020875	0.1225	0.175
-0.02085	0.1225	0.175
-0.020825	0.1225	0.2625
-0.0208	0.1225	0.175
-0.020775	0.13125	0.23125
-0.02075	0.13125	0.26875
-0.020725	0.13125	0.125
-0.0207	0.13125	0.19375
-0.020675	0.13125	0.125
-0.02065	0.13125	0.2125
-0.020625	0.13125	0.19375
-0.0206	0.13125	0.15625
-0.020575	0.13125	0.19375
-0.02055	0.13125	0.30625
-0.020525	0.1525	0.2
-0.0205	0.1525	0.19375
-0.020475	0.1525	0.175
-0.02045	0.1525	0.26875
-0.020425	0.1525	0.16875
-0.0204	0.1525	0.1875
-0.020375	0.1525	0.125
-0.02035	0.1525	0.19375
-0.020325	0.1525	0.125
-0.0203	0.1525	0.11875
-0.020275	0.148125	0.2375
-0.02025	0.148125	0.2625
-0.020225	0.148125	0.23125
-0.0202	0.148125	0.1625
-0.020175	0.148125	0.14375
-0.02015	0.148125	0.19375
-0.020125	0.148125	0.2375
-0.0201	0.148125	0.1125
-0.020075	0.148125	0.1625
-0.02005	0.148125	0.16875
-0.020025	0.133125	0.2
-0.02	0.133125	0.21875
-0.019975	0.133125	0.175
-0.01995	0.133125	0.2125
-0.019925	0.133125	0.24375
-0.0199	0.133125	0.1125
-0.019875	0.133125	0.13125
-0.01985	0.133125	0.1875
-0.019825	0.133125	0.2125
-0.0198	0.133125	0.20625
-0.019775	0.131875	0.2625
-0.01975	0.131875	0.2125
-0.019725	0.131875	0.09375
-0.0197	0.131875	0.23125
-0.019675	0.131875	0.1875
-0.01965	0.131875	0.175
-0.019625	0.131875	0.09375
-0.0196	0.131875	0.23125
-0.019575	0.131875	0.23125
-0.01955	0.131875	0.1875
-0.019525	0.10125	0.15625
-0.0195	0.10125	0.24375
-0.019475	0.10125	0.2125
-0.01945	0.10125	0.1875
-0.019425	0.10125	0.1625
-0.0194	0.10125	0.24375
-0.019375	0.10125	0.2125
-0.01935	0.10125	0.16875
-0.019325	0.10125	0.1625
-0.0193	0.10125	0.23125
-0.019275	0.113125	0.19375
-0.01925	0.113125	0.13125
-0.019225	0.113125	0.21875
-0.0192	0.113125	0.1125
-0.019175	0.113125	0.16875
-0.01915	0.113125	0.13125
-0.019125	0.113125	0.11875
-0.0191	0.113125	0.2
-0.019075	0.113125	0.24375
-0.01905	0.113125	0.15
-0.019025	0.130625	0.1375
-0.019	0.130625	0.1375
-0.018975	0.130625	0.11875
-0.01895	0.130625	0.1125
-0.018925	0.130625	0.14375
-0.0189	0.130625	0.10625
-0.018875	0.130625	0.19375
-0.01885	0.130625	0.18125
-0.018825	0.130625	0.175
-0.0188	0.130625	0.11875
-0.018775	0.13	0.15625
-0.01875	0.13	0.09375
-0.018725	0.13	0.13125
-0.0187	0.13	0.1625
-0.018675	0.13	0.1875
-0.01865	0.13	0.14375
-0.018625	0.13	0.11875
-0.0186	0.13	0.13125
-0.018575	0.13	0.14375
-0.01855	0.13	0.1625
-0.018525	0.160625	0.075
-0.0185	0.160625	0.0625
-0.018475	0.160625	0.14375
-0.01845	0.160625	0.19375
-0.018425	0.160625	0.13125
-0.0184	0.160625	0.1875
-0.018375	0.160625	0.10625
-0.01835	0.160625	0.15625
-0.018325	0.160625	0.2625
-0.0183	0.160625	0.1875
-0.018275	0.144375	0.10625
-0.01825	0.144375	0.175
-0.018225	0.144375	0.15625
-0.0182	0.144375	0.18125
-0.018175	0.144375	0.13125
-0.01815	0.144375	0.125
-0.018125	0.144375	0.13125
-0.0181	0.144375	0.225
-0.018075	0.144375	0.06875
-0.01805	0.144375	0.21875
-0.018025	0.130625	0.2
-0.018	0.130625	0.20625
-0.017975	0.130625	0.1125
-0.01795	0.130625	0.1625
-0.017925	0.130625	0.125
-0.0179	0.130625	0.225
-0.017875	0.130625	0.275
-0.01785	0.130625	0.13125
-0.017825	0.130625	0.13125
-0.0178	0.130625	0.225
-0.017775	0.128125	0.19375
-0.01775	0.128125	0.2
-0.017725	0.128125	0.2
-0.0177	0.128125	0.125
-0.017675	0.128125	0.19375
-0.01765	0.128125	0.09375
-0.017625	0.128125	0.14375
-0.0176	0.128125	0.15
-0.017575	0.128125	0.125
-0.01755	0.128125	0.125
-0.017525	0.099375	0.16875
-0.0175	0.099375	0.2
-0.017475	0.099375	0.23125
-0.01745	0.099375	0.05
-0.017425	0.099375	0.13125
-0.0174	0.099375	0.09375
-0.017375	0.099375	0.10625
-0.01735	0.099375	0.0625
-0.017325	0.099375	0.16875
-0.0173	0.099375	0.1125
-0.017275	0.12	0.13125
-0.01725	0.12	0.13125
-0.017225	0.12	0.1625
-0.0172	0.12	0.18125
-0.017175	0.12	0.15625
-0.01715	0.12	0.10625
-0.017125	0.12	0.125
-0.0171	0.12	0.10625
-0.017075	0.12	0.15
-0.01705	0.12	0.1375
-0.017025	0.12875	0.13125
-0.017	0.12875	0.1875
-0.016975	0.12875	0.11875
-0.01695	0.12875	0.14375
-0.016925	0.12875	0.11875
-0.0169	0.12875	0.1875
-0.016875	0.12875	0.14375
-0.01685	0.12875	0.1125
-0.016825	0.12875	0.2625
-0.0168	0.12875	0.175
-0.016775	0.12875	0.20625
-0.01675	0.12875	0.06875
-0.016725	0.12875	0.19375
-0.0167	0.12875	0.0625
-0.016675	0.12875	0.1375
-0.01665	0.12875	0.1875
-0.016625	0.12875	0.11875
-0.0166	0.12875	0.2125
-0.016575	0.12875	0.1375
-0.01655	0.12875	0.06875
-0.016525	0.161875	0.20625
-0.0165	0.161875	0.18125
-0.016475	0.161875	0.15
-0.01645	0.161875	0.175
-0.016425	0.161875	0.1625
-0.0164	0.161875	0.175
-0.016375	0.161875	0.14375
-0.01635	0.161875	0.14375
-0.016325	0.161875	0.19375
-0.0163	0.161875	0.23125
-0.016275	0.139375	0.14375
-0.01625	0.139375	0.19375
-0.016225	0.139375	0.125
-0.0162	0.139375	0.1625
-0.016175	0.139375	0.1
-0.01615	0.139375	0.1
-0.016125	0.139375	0.26875
-0.0161	0.139375	0.2
-0.016075	0.139375	0.1875
-0.01605	0.139375	0.1
-0.016025	0.131875	0.2125
-0.016	0.131875	0.15
-0.015975	0.131875	0.025
-0.01595	0.131875	0.1875
-0.015925	0.131875	0.175
-0.0159	0.131875	0.1875
-0.015875	0.131875	0.1375
-0.01585	0.131875	0.125
-0.015825	0.131875	0.14375
-0.0158	0.131875	0.2
-0.015775	0.130625	0.16875
-0.01575	0.130625	0.1
-0.015725	0.130625	0.1125
-0.0157	0.130625	0.11875
-0.015675	0.130625	0.125
-0.01565	0.130625	0.175
-0.015625	0.130625	0.1625
-0.0156	0.130625	0.1375
-0.015575	0.130625	0.1875
-0.01555	0.130625	0.1875
-0.015525	0.096875	0.15625
-0.0155	0.096875	0.2
-0.015475	0.096875	0.15
-0.01545	0.096875	0.19375
-0.015425	0.096875	0.13125
-0.0154	0.096875	0.1125
-0.015375	0.096875	0.175
-0.01535	0.096875	0.06875
-0.015325	0.096875	0.11875
-0.0153	0.096875	0.1625
-0.015275	0.121875	0.16875
-0.01525	0.121875	0.075
-0.015225	0.121875	0.15625
-0.0152	0.121875	0.125
-0.015175	0.121875	0.13125
-0.01515	0.121875	0.09375
-0.015125	0.121875	0.19375
-0.0151	0.121875	0.125
-0.015075	0.121875	0.15625
-0.01505	0.121875	0.1375
-0.015025	0.12625	0.13125
-0.015	0.12625	0.1375
-0.014975	0.12625	0.20625
-0.01495	0.12625	0.16875
-0.014925	0.12625	0.14375
-0.0149	0.12625	0.1375
-0.014875	0.12625	0.14375
-0.01485	0.12625	0.0375
-0.014825	0.12625	0.14375
-0.0148	0.12625	0.175
-0.014775	0.13	0.13125
-0.01475	0.13	0.1625
-0.014725	0.13	0.075
-0.0147	0.13	0.15625
-0.014675	0.13	0.1375
-0.01465	0.13	0.04375
-0.014625	0.13	-0.01875
-0.0146	0.13	0.10625
-0.014575	0.13	0.15
-0.01455	0.13	0.1
-0.014525	0.156875	0.125
-0.0145	0.156875	0.2625
-0.014475	0.156875	0.09375
-0.01445	0.156875	0.20625
-0.014425	0.156875	0.21875
-0.0144	0.156875	0.2125
-0.014375	0.156875	0.18125
-0.01435	0.156875	0.09375
-0.014325	0.156875	0.21875
-0.0143	0.156875	0.19375
-0.014275	0.136875	0.1375
-0.01425	0.136875	0.1875
-0.014225	0.136875	0.13125
-0.0142	0.136875	0.19375
-0.014175	0.136875	0.225
-0.01415	0.136875	0.09375
-0.014125	0.136875	0.10625
-0.0141	0.136875	0.06875
-0.014075	0.136875	0.1625
-0.01405	0.136875	0.11875
-0.014025	0.13	0.125
-0.014	0.13	0.20625
-0.013975	0.13	0.1
-0.01395	0.13	0.13125
-0.013925	0.13	0.1
-0.0139	0.13	0.1125
-0.013875	0.13	0.2125
-0.01385	0.13	0.16875
-0.013825	0.13	0.06875
-0.0138	0.13	0.16875
-0.013775	0.11875	0.06875
-0.01375	0.11875	0.20625
-0.013725	0.11875	0.08125
-0.0137	0.11875	0.14375
-0.013675	0.11875	0.175
-0.01365	0.11875	0.1375
-0.013625	0.11875	0.08125
-0.0136	0.11875	0.125
-0.013575	0.11875	0.15
-0.01355	0.11875	0.24375
-0.013525	0.1	0.18125
-0.0135	0.1	0.1625
-0.013475	0.1	0.075
-0.01345	0.1	0.1125
-0.013425	0.1	0.08125
-0.0134	0.1	0.18125
-0.013375	0.1	0.08125
-0.01335	0.1	0.09375
-0.013325	0.1	0.1625
-0.0133	0.1	0.1625
-0.013275	0.123125	0.11875
-0.01325	0.123125	0.11875
-0.013225	0.123125	0.15625
-0.0132	0.123125	0.19375
-0.013175	0.123125	0.1
-0.01315	0.123125	0.09375
-0.013125	0.123125	0.04375
-0.0131	0.123125	0.20625
-0.013075	0.123125	0.1875
-0.01305	0.123125	0.075
-0.013025	0.121875	0.06875
-0.013	0.121875	0.1625
-0.012975	0.121875	0.1375
-0.01295	0.121875	0.19375
-0.012925	0.121875	0.1375
-0.0129	0.121875	0.15
-0.012875	0.121875	0.0125
-0.01285	0.121875	0.16875
-0.012825	0.121875	0.13125
-0.0128	0.121875	0.19375
-0.012775	0.136875	0.10625
-0.01275	0.136875	0.125
-0.012725	0.136875	0.15
-0.0127	0.136875	0.05
-0.012675	0.136875	0.1125
-0.01265	0.136875	0.0625
-0.012625	0.136875	0.09375
-0.0126	0.136875	0.125
-0.012575	0.136875	0.10625
-0.01255	0.136875	0.15
-0.012525	0.1475	0.23125
-0.0125	0.1475	0.175
-0.012475	0.1475	0.13125
-0.01245	0.1475	0.0625
-0.012425	0.1475	0.11875
-0.0124	0.1475	0.1625
-0.012375	0.1475	0.1875
-0.01235	0.1475	0.2125
-0.012325	0.1475	0.1
-0.0123	0.1475	0.21875
-0.012275	0.12375	0.15
-0.01225	0.12375	0.13125
-0.012225	0.12375	0.06875
-0.0122	0.12375	0.1875
-0.012175	0.12375	0.15
-0.01215	0.12375	0.18125
-0.012125	0.12375	0.08125
-0.0121	0.12375	0.2
-0.012075	0.12375	0.1875
-0.01205	0.12375	0.2
-0.012025	0.124375	0.14375
-0.012	0.124375	0.1
-0.011975	0.124375	0.08125
-0.01195	0.124375	0.08125
-0.011925	0.124375	0.08125
-0.0119	0.124375	0.1
-0.011875	0.124375	0.1625
-0.01185	0.124375	0.1
-0.011825	0.124375	0.10625
-0.0118	0.124375	0.15
-0.011775	0.10375	0.15625
-0.01175	0.10375	0.225
-0.011725	0.10375	0.15
-0.0117	0.10375	0.1125
-0.011675	0.10375	0.13125
-0.01165	0.10375	0.1375
-0.011625	0.10375	0.18125
-0.0116	0.10375	0.16875
-0.011575	0.10375	0.18125
-0.01155	0.10375	0.15625
-0.011525	0.0975	0.15
-0.0115	0.0975	0.1125
-0.011475	0.0975	0.1
-0.01145	0.0975	0.10625
-0.011425	0.0975	0.14375
-0.0114	0.0975	0.13125
-0.011375	0.0975	0.1625
-0.01135	0.0975	0.13125
-0.011325	0.0975	0.19375
-0.0113	0.0975	0.125
-0.011275	0.119375	0.13125
-0.01125	0.119375	0.14375
-0.011225	0.119375	0.10625
-0.0112	0.119375	0.125
-0.011175	0.119375	0.18125
-0.01115	0.119375	0.175
-0.011125	0.119375	0.13125
-0.0111	0.119375	0.15
-0.011075	0.119375	0.11875
-0.01105	0.119375	0.14375
-0.011025	0.12375	0.05
-0.011	0.12375	0.075
-0.010975	0.12375	0.11875
-0.01095	0.12375	0.15
-0.010925	0.12375	0.1125
-0.0109	0.12375	0.15
-0.010875	0.12375	0.0875
-0.01085	0.12375	0.1
-0.010825	0.12375	0.025
-0.0108	0.12375	0.10625
-0.010775	0.14125	0.1125
-0.01075	0.14125	0.20625
-0.010725	0.14125	0.03125
-0.0107	0.14125	0.14375
-0.010675	0.14125	0.0875
-0.01065	0.14125	0.15625
-0.010625	0.14125	0.1
-0.0106	0.14125	0.2
-0.010575	0.14125	0.175
-0.01055	0.14125	0.13125
-0.010525	0.139375	0.04375
-0.0105	0.139375	0.15625
-0.010475	0.139375	0.175
-0.01045	0.139375	0.2
-0.010425	0.139375	0.075
-0.0104	0.139375	0.06875
-0.010375	0.139375	0.0875
-0.01035	0.139375	0.08125
-0.010325	0.139375	0.10625
-0.0103	0.139375	0.1875
-0.010275	0.12375	0.15
-0.01025	0.12375	0.04375
-0.010225	0.12375	0.1625
-0.0102	0.12375	0.125
-0.010175	0.12375	0.125
-0.01015	0.12375	0.08125
-0.010125	0.12375	0.13125
-0.0101	0.12375	0.1
-0.010075	0.12375	0.0625
-0.01005	0.12375	0.11875
-0.010025	0.12625	0.06875
-0.01	0.12625	0.1125
-0.009975	0.12625	0.025
-0.00995	0.12625	0.15
-0.009925	0.12625	0.0875
-0.0099	0.12625	0.125
-0.009875	0.12625	0.1375
-0.00985	0.12625	0.09375
-0.009825	0.12625	0.14375
-0.0098	0.12625	0.175
-0.009775	0.095	0.125
-0.00975	0.095	0.10625
-0.009725	0.095	0.21875
-0.0097	0.095	0.15
-0.009675	0.095	0.13125
-0.00965	0.095	0.175
-0.009625	0.095	0.09375
-0.0096	0.095	0.0875
-0.009575	0.095	0.125
-0.00955	0.095	0.16875
-0.009525	0.104375	0.1875
-0.0095	0.104375	0.14375
-0.009475	0.104375	0.11875
-0.00945	0.104375	0.0625
-0.009425	0.104375	0.18125
-0.0094	0.104375	0.125
-0.009375	0.104375	0.06875
-0.00935	0.104375	0.09375
-0.009325	0.104375	0.125
-0.0093	0.104375	0.10625
-0.009275	0.120625	0.175
-0.00925	0.120625	0.1
-0.009225	0.120625	0.15
-0.0092	0.120625	0.21875
-0.009175	0.120625	0.15625
-0.00915	0.120625	0.10625
-0.009125	0.120625	0.1
-0.0091	0.120625	0.15625
-0.009075	0.120625	0.09375
-0.00905	0.120625	0.11875
-0.009025	0.12625	0.1
-0.009	0.12625	0.10625
-0.008975	0.12625	0.0625
-0.00895	0.12625	0.2875
-0.008925	0.12625	0.11875
-0.0089	0.12625	0.10625
-0.008875	0.12625	0.0125
-0.00885	0.12625	0.175
-0.008825	0.12625	0.075
-0.0088	0.12625	0.11875
-0.008775	0.156875	0.03125
-0.00875	0.156875	0.275
-0.008725	0.156875	0.08125
-0.0087	0.156875	0.10625
-0.008675	0.156875	0.10625
-0.00865	0.156875	0.1
-0.008625	0.156875	0.06875
-0.0086	0.156875	0.03125
-0.008575	0.156875	0.05625
-0.00855	0.156875	0.075
-0.008525	0.13375	0.075
-0.0085	0.13375	0.05
-0.008475	0.13375	0.1875
-0.00845	0.13375	0.05
-0.008425	0.13375	0.11875
-0.0084	0.13375	0.0875
-0.008375	0.13375	0.09375
-0.00835	0.13375	0.13125
-0.008325	0.13375	0.10625
-0.0083	0.13375	0.10625
-0.008275	0.125	0.10625
-0.00825	0.125	0.16875
-0.008225	0.125	0.04375
-0.0082	0.125	0.125
-0.008175	0.125	0.06875
-0.00815	0.125	0.09375
-0.008125	0.125	0.1625
-0.0081	0.125	0.09375
-0.008075	0.125	0.16875
-0.00805	0.125	0.1375
-0.008025	0.125625	0.1625
-0.008	0.125625	0
-0.007975	0.125625	0.15625
-0.00795	0.125625	0.125
-0.007925	0.125625	0.06875
-0.0079	0.125625	0.09375
-0.007875	0.125625	0.13125
-0.00785	0.125625	0.075
-0.007825	0.125625	0.10625
-0.0078	0.125625	0.15
-0.007775	0.096875	0.1625
-0.00775	0.096875	0.175
-0.007725	0.096875	0.06875
-0.0077	0.096875	0.075
-0.007675	0.096875	0.0625
-0.00765	0.096875	0.06875
-0.007625	0.096875	0.03125
-0.0076	0.096875	0.1375
-0.007575	0.096875	0.225
-0.00755	0.096875	0.16875
-0.007525	0.11375	0.0875
-0.0075	0.11375	0.06875
-0.007475	0.11375	-0.00625
-0.00745	0.11375	-0.00625
-0.007425	0.11375	0.13125
-0.0074	0.11375	0.175
-0.007375	0.11375	0.125
-0.00735	0.11375	0.18125
-0.007325	0.11375	0.01875
-0.0073	0.11375	0.14375
-0.007275	0.124375	-0.00625
-0.00725	0.124375	0.08125
-0.007225	0.124375	0.14375
-0.0072	0.124375	0.1125
-0.007175	0.124375	0.15625
-0.00715	0.124375	0.10625
-0.007125	0.124375	0.04375
-0.0071	0.124375	0.0875
-0.007075	0.124375	0.10625
-0.00705	0.124375	0.00625
-0.007025	0.125	0.10625
-0.007	0.125	0.13125
-0.006975	0.125	0.075
-0.00695	0.125	0.18125
-0.006925	0.125	0.15625
-0.0069	0.125	0.06875
-0.006875	0.125	0.09375
-0.00685	0.125	0.1875
-0.006825	0.125	0.14375
-0.0068	0.125	0.15625
-0.006775	0.15125	0.1
-0.00675	0.15125	0.08125
-0.006725	0.15125	0.2
-0.0067	0.15125	0.10625
-0.006675	0.15125	0.06875
-0.00665	0.15125	0.06875
-0.006625	0.15125	0.09375
-0.0066	0.15125	0.1375
-0.006575	0.15125	0.15625
-0.00655	0.15125	0.13125
-0.006525	0.136875	0.05625
-0.0065	0.136875	0.13125
-0.006475	0.136875	0.11875
-0.00645	0.136875	0.05
-0.006425	0.136875	0.1625
-0.0064	0.136875	0.125
-0.006375	0.136875	0.13125
-0.00635	0.136875	0.0875
-0.006325	0.136875	0.08125
-0.0063	0.136875	0.075
-0.006275	0.1325	0.15625
-0.00625	0.1325	0.1
-0.006225	0.1325	0.0625
-0.0062	0.1325	0.05625
-0.006175	0.1325	0.19375
-0.00615	0.1325	0.1375
-0.006125	0.1325	0.10625
-0.0061	0.1325	0.09375
-0.006075	0.1325	0.125
-0.00605	0.1325	0.11875
-0.006025	0.1275	0.11875
-0.006	0.1275	0.08125
-0.005975	0.1275	0.13125
-0.00595	0.1275	0.1625
-0.005925	0.1275	0.1125
-0.0059	0.1275	0.11875
-0.005875	0.1275	0.15
-0.00585	0.1275	0.09375
-0.005825	0.1275	0.05
-0.0058	0.1275	0.08125
-0.005775	0.09375	0.10625
-0.00575	0.09375	0.05
-0.005725	0.09375	0.04375
-0.0057	0.09375	0.10625
-0.005675	0.09375	0.15
-0.00565	0.09375	0.13125
-0.005625	0.09375	0.16875
-0.0056	0.09375	0.1125
-0.005575	0.09375	0.14375
-0.00555	0.09375	0.18125
-0.005525	0.120625	0.06875
-0.0055	0.120625	0.1
-0.005475	0.120625	0.125
-0.00545	0.120625	0.1375
-0.005425	0.120625	0.14375
-0.0054	0.120625	0.11875
-0.005375	0.120625	0.1875
-0.00535	0.120625	0.10625
-0.005325	0.120625	0.14375
-0.0053	0.120625	0.125
-0.005275	0.12625	0.09375
-0.00525	0.12625	0.11875
-0.005225	0.12625	0.16875
-0.0052	0.12625	0.08125
-0.005175	0.12625	-0.00625
-0.00515	0.12625	0.06875
-0.005125	0.12625	0.11875
-0.0051	0.12625	0.14375
-0.005075	0.12625	0.0125
-0.00505	0.12625	0.10625
-0.005025	0.130625	0.025
-0.005	0.130625	0.0375
-0.004975	0.130625	0.19375
-0.00495	0.130625	0.1125
-0.004925	0.130625	0.18125
-0.0049	0.130625	0.175
-0.004875	0.130625	0.1375
-0.00485	0.130625	0.0875
-0.004825	0.130625	0.14375
-0.0048	0.130625	0.0625
-0.004775	0.159375	0.14375
-0.00475	0.159375	0.1125
-0.004725	0.159375	0.20625
-0.0047	0.159375	0
-0.004675	0.159375	0.05625
-0.00465	0.159375	0.1
-0.004625	0.159375	0.09375
-0.0046	0.159375	0.13125
-0.004575	0.159375	0.13125
-0.00455	0.159375	0.11875
-0.004525	0.136875	0.13125
-0.0045	0.136875	0.1
-0.004475	0.136875	0.13125
-0.00445	0.136875	0.16875
-0.004425	0.136875	0.14375
-0.0044	0.136875	0.09375
-0.004375	0.136875	0.05
-0.00435	0.136875	0.0625
-0.004325	0.136875	0.19375
-0.0043	0.136875	0.0875
-0.004275	0.130625	0.06875
-0.00425	0.130625	0.13125
-0.004225	0.130625	0.06875
-0.0042	0.130625	0.0375
-0.004175	0.130625	0.18125
-0.00415	0.130625	0.01875
-0.004125	0.130625	0
-0.0041	0.130625	0.11875
-0.004075	0.130625	0.18125
-0.00405	0.130625	0.10625
-0.004025	0.119375	0.15
-0.004	0.119375	0.14375
-0.003975	0.119375	0.0625
-0.00395	0.119375	0.14375
-0.003925	0.119375	0.04375
-0.0039	0.119375	0.11875
-0.003875	0.119375	0.125
-0.00385	0.119375	0.15625
-0.003825	0.119375	0.13125
-0.0038	0.119375	0.10625
-0.003775	0.10125	0.1125
-0.00375	0.10125	0.10625
-0.003725	0.10125	0.125
-0.0037	0.10125	0.08125
-0.003675	0.10125	0.20625
-0.00365	0.10125	0.1375
-0.003625	0.10125	0.04375
-0.0036	0.10125	0.05
-0.003575	0.10125	0
-0.00355	0.10125	0.16875
-0.003525	0.128125	0.06875
-0.0035	0.128125	0.06875
-0.003475	0.128125	0.06875
-0.00345	0.128125	0.15625
-0.003425	0.128125	0.0625
-0.0034	0.128125	0.10625
-0.003375	0.128125	0.10625
-0.00335	0.128125	0.03125
-0.003325	0.128125	0.075
-0.0033	0.128125	0.14375
-0.003275	0.1325	0.125
-0.00325	0.1325	0.05
-0.003225	0.1325	0.1625
-0.0032	0.1325	0.04375
-0.003175	0.1325	0.05625
-0.00315	0.1325	0.10625
-0.003125	0.1325	0.10625
-0.0031	0.1325	0.175
-0.003075	0.1325	0.03125
-0.00305	0.1325	0.125
-0.003025	0.146875	0.10625
-0.003	0.146875	0.1
-0.002975	0.146875	0.0875
-0.00295	0.146875	0.125
-0.002925	0.146875	0.1625
-0.0029	0.146875	0.15625
-0.002875	0.146875	0.18125
-0.00285	0.146875	0.11875
-0.002825	0.146875	0.11875
-0.0028	0.146875	0.0875
-0.002775	0.154375	0.09375
-0.00275	0.154375	0.025
-0.002725	0.154375	0.10625
-0.0027	0.154375	0.10625
-0.002675	0.154375	0.04375
-0.00265	0.154375	0.05625
-0.002625	0.154375	0.08125
-0.0026	0.154375	0.10625
-0.002575	0.154375	0.09375
-0.00255	0.154375	0.15625
-0.002525	0.135	0.04375
-0.0025	0.135	0.09375
-0.002475	0.135	0.1625
-0.00245	0.135	0.05625
-0.002425	0.135	0.1
-0.0024	0.135	0.04375
-0.002375	0.135	0.05
-0.00235	0.135	0.0625
-0.002325	0.135	0.09375
-0.0023	0.135	0.0875
-0.002275	0.134375	0.20625
-0.00225	0.134375	0.1
-0.002225	0.134375	0.13125
-0.0022	0.134375	0.1875
-0.002175	0.134375	0.1625
-0.00215	0.134375	0.0625
-0.002125	0.134375	0.0875
-0.0021	0.134375	0.0625
-0.002075	0.134375	0.125
-0.00205	0.134375	0.09375
-0.002025	0.115	0.11875
-0.002	0.115	0.0875
-0.001975	0.115	0.06875
-0.00195	0.115	0.05
-0.001925	0.115	0.13125
-0.0019	0.115	0.08125
-0.001875	0.115	0.05
-0.00185	0.115	0.14375
-0.001825	0.115	0.03125
-0.0018	0.115	0.025
-0.001775	0.113125	0.05625
-0.00175	0.113125	0.10625
-0.001725	0.113125	0.10625
-0.0017	0.113125	0.075
-0.001675	0.113125	0.03125
-0.00165	0.113125	0.0875
-0.001625	0.113125	0.18125
-0.0016	0.113125	0.06875
-0.001575	0.113125	0.19375
-0.00155	0.113125	0.05
-0.001525	0.136875	0.1875
-0.0015	0.136875	0
-0.001475	0.136875	0.1
-0.00145	0.136875	0.09375
-0.001425	0.136875	0.06875
-0.0014	0.136875	0.1125
-0.001375	0.136875	0.03125
-0.00135	0.136875	0.05
-0.001325	0.136875	0.10625
-0.0013	0.136875	0.14375
-0.001275	0.129375	0.10625
-0.00125	0.129375	0.08125
-0.001225	0.129375	0.06875
-0.0012	0.129375	-0.025
-0.001175	0.129375	0.09375
-0.00115	0.129375	0.1
-0.001125	0.129375	0.05
-0.0011	0.129375	0.075
-0.001075	0.129375	0.0625
-0.00105	0.129375	0.10625
-0.001025	0.150625	0.00625
-0.001	0.150625	0.10625
-0.000975	0.150625	0.14375
-0.00095	0.150625	0.09375
-0.000925	0.150625	0.06875
-0.0009	0.150625	0.0625
-0.000875	0.150625	0.05
-0.00085	0.150625	0.0625
-0.000825	0.150625	0.04375
-0.0008	0.150625	0.11875
-0.000775	0.153125	0.14375
-0.00075	0.153125	0.10625
-0.000725	0.153125	0.0875
-0.0007	0.153125	0.025
-0.000675	0.153125	0.05625
-0.00065	0.153125	0.125
-0.000625	0.153125	0.04375
-0.0006	0.153125	0.05
-0.000575	0.153125	0.08125
-0.00055	0.153125	0.15625
-0.000525	0.136875	0.0125
-0.0005	0.136875	0.09375
-0.000475	0.136875	0.19375
-0.00045	0.136875	0.0875
-0.000425	0.136875	0.175
-0.0004	0.136875	0.08125
-0.000375	0.136875	0.09375
-0.00035	0.136875	0.125
-0.000325	0.136875	0.09375
-0.0003	0.136875	0.01875
-0.000275	0.13	0.04375
-0.00025	0.13	0.09375
-0.000225	0.13	0.0875
-0.0002	0.13	0.10625
-0.000175	0.13	0.10625
-0.00015	0.13	-0.00625
-0.000125	0.13	0.0625
-0.0001	0.13	0.10625
-0.000075	0.13	0.075
-0.00005	0.13	0.01875
-0.000025	0.108125	0.15
-0	0.108125	0
0.000025	0.108125	1.2625
0.00005	0.108125	16.2625
0.000075	0.108125	17.1125
0.0001	0.108125	17.46875
0.000125	0.108125	17.325
0.00015	0.108125	16.85
0.000175	0.108125	16.43125
0.0002	0.108125	16.025
0.000225	0.113125	-10.78125
0.00025	0.113125	-8.20625
0.000275	0.113125	-4.44375
0.0003	0.113125	-3.6125
0.000325	0.113125	-3.09375
0.00035	0.113125	-2.8125
0.000375	0.113125	-2.53125
0.0004	0.113125	-2.43125
0.000425	0.113125	-2.2625
0.00045	0.113125	-2.1625
0.000475	0.30125	-2.0125
0.0005	0.30125	-1.90625
0.000525	0.30125	-1.85
0.00055	0.30125	-1.78125
0.000575	0.30125	-1.675
0.0006	0.30125	-1.63125
0.000625	0.30125	-1.55
0.00065	0.30125	-1.33125
0.000675	0.30125	-1.375
0.0007	0.30125	-1.26875
0.000725	0.27375	-1.2625
0.00075	0.27375	-1.1125
0.000775	0.27375	-1.14375
0.0008	0.27375	-1.21875
0.000825	0.27375	-1.08125
0.00085	0.27375	-1.0375
0.000875	0.27375	-1.0375
0.0009	0.27375	-0.9375
0.000925	0.27375	-0.9625
0.00095	0.27375	-0.875
0.000975	0.1875	-0.81875
0.001	0.1875	-0.85
0.001025	0.1875	-0.74375
0.00105	0.1875	-0.8
0.001075	0.1875	-0.75
0.0011	0.1875	-0.6625
0.001125	0.1875	-0.58125
0.00115	0.1875	-0.675
0.001175	0.1875	-0.6625
0.0012	0.1875	-0.54375
0.001225	0.155	-0.58125
0.00125	0.155	-0.5125
0.001275	0.155	-0.49375
0.0013	0.155	-0.5625
0.001325	0.155	-0.5125
0.00135	0.155	-0.4875
0.001375	0.155	-0.38125
0.0014	0.155	-0.3625
0.001425	0.155	-0.35625
0.00145	0.155	-0.33125
0.001475	0.143125	-0.35
0.0015	0.143125	-0.44375
0.001525	0.143125	-0.3125
0.00155	0.143125	-0.3875
0.001575	0.143125	-0.3125
0.0016	0.143125	-0.25625
0.001625	0.143125	-0.2625
0.00165	0.143125	-0.26875
0.001675	0.143125	-0.2375
0.0017	0.143125	-0.2125
0.001725	0.139375	-0.26875
0.00175	0.139375	-0.2875
0.001775	0.139375	-0.28125
0.0018	0.139375	-0.35
0.001825	0.139375	-0.24375
0.00185	0.139375	-0.23125
0.001875	0.139375	-0.14375
0.0019	0.139375	-0.18125
0.001925	0.139375	-0.2125
0.00195	0.139375	-0.10625
0.001975	0.1075	-0.13125
0.002	0.1075	-0.09375
0.002025	0.1075	-0.14375
0.00205	0.1075	-0.1125
0.002075	0.1075	-0.23125
0.0021	0.1075	-0.1625
0.002125	0.1075	-0.125
0.00215	0.1075	-0.0875
0.002175	0.1075	-0.16875
0.0022	0.1075	-0.1
0.002225	0.125625	-0.09375
0.00225	0.125625	-0.0625
0.002275	0.125625	-0.09375
0.0023	0.125625	-0.0625
0.002325	0.125625	-0.09375
0.00235	0.125625	-0.01875
0.002375	0.125625	-0.0375
0.0024	0.125625	-0.06875
0.002425	0.125625	-0.06875
0.00245	0.125625	-0.11875
0.002475	0.135	-0.09375
0.0025	0.135	-0.1
0.002525	0.135	-0.04375
0.00255	0.135	-0.025
0.002575	0.135	-0.16875
0.0026	0.135	-0.075
0.002625	0.135	0.03125
0.00265	0.135	-0.05
0.002675	0.135	-0.05625
0.0027	0.135	-0.03125
0.002725	0.13875	-0.0125
0.00275	0.13875	-0.0875
0.002775	0.13875	0.00625
0.0028	0.13875	-0.00625
0.002825	0.13875	0.04375
0.00285	0.13875	-0.03125
0.002875	0.13875	-0.0375
0.0029	0.13875	0.09375
0.002925	0.13875	-0.05
0.00295	0.13875	0.0125
0.002975	0.166875	0.04375
0.003	0.166875	0.0125
0.003025	0.166875	-0.04375
0.00305	0.166875	0.04375
0.003075	0.166875	-0.01875
0.0031	0.166875	0.075
0.003125	0.166875	0.06875
0.00315	0.166875	-0.0125
0.003175	0.166875	0.05625
0.0032	0.166875	0.0125
0.003225	0.144375	-0.05
0.00325	0.144375	0.0125
0.003275	0.144375	-0.04375
0.0033	0.144375	-0.04375
0.003325	0.144375	-0.04375
0.00335	0.144375	0.0875
0.003375	0.144375	0.05625
0.0034	0.144375	0.05
0.003425	0.144375	0.025
0.00345	0.144375	-0.0375
0.003475	0.1325	0.0125
0.0035	0.1325	0.025
0.003525	0.1325	0.04375
0.00355	0.1325	-0.075
0.003575	0.1325	0
0.0036	0.1325	-0.0375
0.003625	0.1325	0.06875
0.00365	0.1325	-0.03125
0.003675	0.1325	0.05
0.0037	0.1325	0.0125
0.003725	0.12875	-0.03125
0.00375	0.12875	-0.0375
0.003775	0.12875	0.075
0.0038	0.12875	0.06875
0.003825	0.12875	-0.09375
0.00385	0.12875	0.06875
0.003875	0.12875	-0.01875
0.0039	0.12875	0.00625
0.003925	0.12875	-0.03125
0.00395	0.12875	-0.06875
0.003975	0.101875	-0.0375
0.004	0.101875	0.06875
0.004025	0.101875	-0.0375
0.00405	0.101875	0.075
0.004075	0.101875	0.03125
0.0041	0.101875	-0.025
0.004125	0.101875	0.0875
0.00415	0.101875	-0.025
0.004175	0.101875	-0.04375
0.0042	0.101875	0.025
0.004225	0.125	0.01875
0.00425	0.125	0.00625
0.004275	0.125	0.05625
0.0043	0.125	0.05625
0.004325	0.125	0.01875
0.00435	0.125	0.05625
0.004375	0.125	0.09375
0.0044	0.125	0.05625
0.004425	0.125	0.04375
0.00445	0.125	-0.05
0.004475	0.1275	0.0375
0.0045	0.1275	0.03125
0.004525	0.1275	0.0375
0.00455	0.1275	0.00625
0.004575	0.1275	0.03125
0.0046	0.1275	0.06875
0.004625	0.1275	0.0125
0.00465	0.1275	0.01875
0.004675	0.1275	0.01875
0.0047	0.1275	0
0.004725	0.13625	0
0.00475	0.13625	-0.06875
0.004775	0.13625	0.00625
0.0048	0.13625	0.05
0.004825	0.13625	-0.00625
0.00485	0.13625	0.0375
0.004875	0.13625	0.00625
0.0049	0.13625	-0.01875
0.004925	0.13625	0.01875
0.00495	0.13625	-0.04375
0.004975	0.16	0.025
0.005	0.16	-0.01875
0.005025	0.16	0.03125
0.00505	0.16	0.0375
0.005075	0.16	0.00625
0.0051	0.16	0.025
0.005125	0.16	0.05625
0.00515	0.16	0.09375
0.005175	0.16	0.09375
0.0052	0.16	0.04375
0.005225	0.136875	0
0.00525	0.136875	0.03125
0.005275	0.136875	-0.025
0.0053	0.136875	0.05625
0.005325	0.136875	0.03125
0.00535	0.136875	0.04375
0.005375	0.136875	0.13125
0.0054	0.136875	0.06875
0.005425	0.136875	0.1
0.00545	0.136875	-0.01875
0.005475	0.128125	0.1625
0.0055	0.128125	0.06875
0.005525	0.128125	0.13125
0.00555	0.128125	0.03125
0.005575	0.128125	-0.05625
0.0056	0.128125	0.00625
0.005625	0.128125	-0.0375
0.00565	0.128125	0.15
0.005675	0.128125	-0.025
0.0057	0.128125	0.11875
0.005725	0.116875	-0.0375
0.00575	0.116875	0.05625
0.005775	0.116875	0.0625
0.0058	0.116875	-0.025
0.005825	0.116875	0.05
0.00585	0.116875	0.04375
0.005875	0.116875	0.0625
0.0059	0.116875	0.025
0.005925	0.116875	0.05625
0.00595	0.116875	0.04375
0.005975	0.0975	0.08125
0.006	0.0975	-0.05625
0.006025	0.0975	0.0625
0.00605	0.0975	0.0375
0.006075	0.0975	0.1
0.0061	0.0975	0.025
0.006125	0.0975	-0.03125
0.00615	0.0975	-0.00625
0.006175	0.0975	0.0125
0.0062	0.0975	-0.05
0.006225	0.125625	0.075
0.00625	0.125625	0.0625
0.006275	0.125625	-0.00625
0.0063	0.125625	0.01875
0.006325	0.125625	0.09375
0.00635	0.125625	0.1125
0.006375	0.125625	0.01875
0.0064	0.125625	0.075
0.006425	0.125625	0.15
0.00645	0.125625	-0.00625
0.006475	0.12375	0.09375
0.0065	0.12375	0.11875
0.006525	0.12375	0.08125
0.00655	0.12375	0.03125
0.006575	0.12375	0.05
0.0066	0.12375	0.05
0.006625	0.12375	0.01875
0.00665	0.12375	0.125
0.006675	0.12375	-0.00625
0.0067	0.12375	0.04375
0.006725	0.139375	0.1625
0.00675	0.139375	0.025
0.006775	0.139375	0.075
0.0068	0.139375	0.05625
0.006825	0.139375	0.0875
0.00685	0.139375	0.05
0.006875	0.139375	0.075
0.0069	0.139375	0.075
0.006925	0.139375	0.04375
0.00695	0.139375	0.04375
0.006975	0.151875	0.05
0.007	0.151875	0.09375
0.007025	0.151875	0.0875
0.00705	0.151875	0.0375
0.007075	0.151875	0.01875
0.0071	0.151875	0.1125
0.007125	0.151875	0.05
0.00715	0.151875	0.05625
0.007175	0.151875	-0.0375
0.0072	0.151875	0.06875
0.007225	0.136875	0.06875
0.00725	0.136875	0.00625
0.007275	0.136875	0.05
0.0073	0.136875	0.10625
0.007325	0.136875	0.09375
0.00735	0.136875	0
0.007375	0.136875	0.025
0.0074	0.136875	0.08125
0.007425	0.136875	0.10625
0.00745	0.136875	0.09375
0.007475	0.14	0.04375
0.0075	0.14	0.0375
0.007525	0.14	0.04375
0.00755	0.14	-0.0625
0.007575	0.14	0.00625
0.0076	0.14	0.00625
0.007625	0.14	0.14375
0.00765	0.14	0.06875
0.007675	0.14	0.13125
0.0077	0.14	0.1
0.007725	0.11625	0.15
0.00775	0.11625	0.01875
0.007775	0.11625	0.10625
0.0078	0.11625	0.10625
0.007825	0.11625	-0.00625
0.00785	0.11625	0.06875
0.007875	0.11625	0.05
0.0079	0.11625	0.03125
0.007925	0.11625	0.1
0.00795	0.11625	0.04375
0.007975	0.115625	0.00625
0.008	0.115625	0.05625
0.008025	0.115625	0.00625
0.00805	0.115625	0.09375
0.008075	0.115625	0.00625
0.0081	0.115625	0.075
0.008125	0.115625	0.08125
0.00815	0.115625	0.04375
0.008175	0.115625	0.03125
0.0082	0.115625	0.0375
0.008225	0.135	-0.03125
0.00825	0.135	0.00625
0.008275	0.135	-0.03125
0.0083	0.135	-0.01875
0.008325	0.135	0.06875
0.00835	0.135	0.025
0.008375	0.135	0.05625
0.0084	0.135	0.09375
0.008425	0.135	0.09375
0.00845	0.135	0.0125
0.008475	0.136875	0.0375
0.0085	0.136875	-0.00625
0.008525	0.136875	-0.0125
0.00855	0.136875	-0.01875
0.008575	0.136875	-0.00625
0.0086	0.136875	0.1125
0.008625	0.136875	0.0125
0.00865	0.136875	0.11875
0.008675	0.136875	-0.0375
0.0087	0.136875	0.075
0.008725	0.16375	0.0375
0.00875	0.16375	0.00625
0.008775	0.16375	0.0125
0.0088	0.16375	0.00625
0.008825	0.16375	0.0125
0.00885	0.16375	0.0375
0.008875	0.16375	0.0125
0.0089	0.16375	-0.0375
0.008925	0.16375	0.09375
0.00895	0.16375	0.0875
0.008975	0.16375	0.1375
0.009	0.16375	0.03125
0.009025	0.16375	0.03125
0.00905	0.16375	-0.0375
0.009075	0.16375	0.0375
0.0091	0.16375	0.04375
0.009125	0.16375	0.08125
0.00915	0.16375	0.05625
0.009175	0.16375	0.01875
0.0092	0.16375	-0.01875
0.009225	0.146875	0.03125
0.00925	0.146875	0.08125
0.009275	0.146875	0.11875
0.0093	0.146875	0.03125
0.009325	0.146875	-0.04375
0.00935	0.146875	0.0125
0.009375	0.146875	-0.03125
0.0094	0.146875	0.01875
0.009425	0.146875	0.0625
0.00945	0.146875	0.09375
0.009475	0.14625	0.05625
0.0095	0.14625	-0.0125
0.009525	0.14625	0.04375
0.00955	0.14625	0.06875
0.009575	0.14625	0.0625
0.0096	0.14625	0.0125
0.009625	0.14625	-0.0125
0.00965	0.14625	0.08125
0.009675	0.14625	0.08125
0.0097	0.14625	0.16875
0.009725	0.125	0
0.00975	0.125	0.06875
0.009775	0.125	0.05
0.0098	0.125	0.11875
0.009825	0.125	0.10625
0.00985	0.125	0.1375
0.009875	0.125	0.05625
0.0099	0.125	0.05
0.009925	0.125	0.05625
0.00995	0.125	0.01875
0.009975	0.141875	0.0125
0.01	0.141875	-0.03125
0.010025	0.141875	0.1875
0.01005	0.141875	0.05
0.010075	0.141875	0.00625
0.0101	0.141875	0
0.010125	0.141875	0.01875
0.01015	0.141875	0.10625
0.010175	0.141875	0.06875
0.0102	0.141875	0.0125
0.010225	0.153125	0.05
0.01025	0.153125	-0.0125
0.010275	0.153125	0.0375
0.0103	0.153125	0.05
0.010325	0.153125	0.01875
0.01035	0.153125	0.11875
0.010375	0.153125	0.08125
0.0104	0.153125	0.14375
0.010425	0.153125	0.00625
0.01045	0.153125	0.08125
0.010475	0.163125	0.0625
0.0105	0.163125	0.10625
0.010525	0.163125	0.08125
0.01055	0.163125	-0.025
0.010575	0.163125	0.08125
0.0106	0.163125	0.05625
0.010625	0.163125	0.05
0.01065	0.163125	0.01875
0.010675	0.163125	0.11875
0.0107	0.163125	-0.01875
0.010725	0.195	0.0375
0.01075	0.195	0.03125
0.010775	0.195	0.03125
0.0108	0.195	0.0625
0.010825	0.195	-0.0625
0.01085	0.195	-0.01875
0.010875	0.195	0.03125
0.0109	0.195	0.01875
0.010925	0.195	0.05
0.01095	0.195	-0.025
0.010975	0.174375	0.04375
0.011	0.174375	0.0875
0.011025	0.174375	0.0125
0.01105	0.174375	0.04375
0.011075	0.174375	0.0625
0.0111	0.174375	0.1125
0.011125	0.174375	0.0125
0.01115	0.174375	-0.03125
0.011175	0.174375	0
0.0112	0.174375	0.0125
0.011225	0.165	-0.01875
0.01125	0.165	0.06875
0.011275	0.165	0.03125
0.0113	0.165	0.10625
0.011325	0.165	0.0625
0.01135	0.165	0.09375
0.011375	0.165	0.0375
0.0114	0.165	0.11875
0.011425	0.165	0.08125
0.01145	0.165	-0.0125
0.011475	0.165	0.1
0.0115	0.165	0.06875
0.011525	0.165	0.11875
0.01155	0.165	0.05
0.011575	0.165	0.0875
0.0116	0.165	0.13125
0.011625	0.165	-0.03125
0.01165	0.165	0.075
0.011675	0.165	0.08125
0.0117	0.165	0.10625
0.011725	0.13375	0.0125
0.01175	0.13375	0.1125
0.011775	0.13375	0.11875
0.0118	0.13375	-0.01875
0.011825	0.13375	0.04375
0.01185	0.13375	0.0875
0.011875	0.13375	0.01875
0.0119	0.13375	0.025
0.011925	0.13375	0.04375
0.01195	0.13375	0.09375
0.011975	0.145625	0.10625
0.012	0.145625	0.04375
0.012025	0.145625	0.04375
0.01205	0.145625	0.13125
0.012075	0.145625	0.05
0.0121	0.145625	0.03125
0.012125	0.145625	0.06875
0.01215	0.145625	0.08125
0.012175	0.145625	-0.00625
0.0122	0.145625	0.125
0.012225	0.154375	-0.0125
0.01225	0.154375	0.06875
0.012275	0.154375	0.09375
0.0123	0.154375	0.11875
0.012325	0.154375	-0.04375
0.01235	0.154375	0.05625
0.012375	0.154375	0.1375
0.0124	0.154375	-0.0375
0.012425	0.154375	0.0375
0.01245	0.154375	0.025
0.012475	0.155	0.075
0.0125	0.155	0.01875
0.012525	0.155	0.06875
0.01255	0.155	-0.00625
0.012575	0.155	0.03125
0.0126	0.155	-0.00625
0.012625	0.155	0.1
0.01265	0.155	0.05625
0.012675	0.155	0.05625
0.0127	0.155	0.04375
0.012725	0.1775	0.0875
0.01275	0.1775	0.08125
0.012775	0.1775	0.0625
0.0128	0.1775	0.03125
0.012825	0.1775	0.0625
0.01285	0.1775	0.04375
0.012875	0.1775	-0.0125
0.0129	0.1775	0.15
0.012925	0.1775	0.04375
0.01295	0.1775	0.06875
0.012975	0.149375	-0.0375
0.013	0.149375	0.01875
0.013025	0.149375	0.13125
0.01305	0.149375	0.0375
0.013075	0.149375	0.14375
0.0131	0.149375	0.01875
0.013125	0.149375	0.00625
0.01315	0.149375	0.1
0.013175	0.149375	0.13125
0.0132	0.149375	0
0.013225	0.13375	0.0625
0.01325	0.13375	0
0.013275	0.13375	0.15625
0.0133	0.13375	-0.025
0.013325	0.13375	0.06875
0.01335	0.13375	0.01875
0.013375	0.13375	-0.01875
0.0134	0.13375	0.03125
0.013425	0.13375	0.21875
0.01345	0.13375	0.15
0.013475	0.125625	0.04375
0.0135	0.125625	0.1
0.013525	0.125625	0.05625
0.01355	0.125625	0.0625
0.013575	0.125625	-0.025
0.0136	0.125625	0.08125
0.013625	0.125625	0.04375
0.01365	0.125625	0.08125
0.013675	0.125625	0.1
0.0137	0.125625	0.03125
0.013725	0.0925	0.0125
0.01375	0.0925	0.08125
0.013775	0.0925	0.00625
0.0138	0.0925	0.03125
0.013825	0.0925	0.05
0.01385	0.0925	0.1
0.013875	0.0925	0.04375
0.0139	0.0925	0.09375
0.013925	0.0925	0
0.01395	0.0925	0.1375
0.013975	0.105625	0.1375
0.014	0.105625	0.00625
0.014025	0.105625	0.08125
0.01405	0.105625	-0.05
0.014075	0.105625	0.09375
0.0141	0.105625	-0.0125
0.014125	0.105625	0.05625
0.01415	0.105625	-0.025
0.014175	0.105625	0.05625
0.0142	0.105625	0.01875
0.014225	0.106875	0.04375
0.01425	0.106875	0.075
0.014275	0.106875	0.13125
0.0143	0.106875	0.0125
0.014325	0.106875	0.01875
0.01435	0.106875	0.05
0.014375	0.106875	0.05
0.0144	0.106875	0.05625
0.014425	0.106875	0
0.01445	0.106875	0.0625
0.014475	0.119375	0.08125
0.0145	0.119375	0.0875
0.014525	0.119375	0.075
0.01455	0.119375	0.1125
0.014575	0.119375	0.04375
0.0146	0.119375	0.0625
0.014625	0.119375	-0.04375
0.01465	0.119375	0.05
0.014675	0.119375	0.00625
0.0147	0.119375	-0.05
0.014725	0.146875	0.09375
0.01475	0.146875	-0.03125
0.014775	0.146875	0.04375
0.0148	0.146875	0.09375
0.014825	0.146875	0.00625
0.01485	0.146875	0.05625
0.014875	0.146875	0.025
0.0149	0.146875	0.05625
0.014925	0.146875	0.1
0.01495	0.146875	0.0625
0.014975	0.124375	-0.05
0.015	0.124375	0.125
0.015025	0.124375	0.05
0.01505	0.124375	0.05625
0.015075	0.124375	0
0.0151	0.124375	0.01875
0.015125	0.124375	0.125
0.01515	0.124375	0.075
0.015175	0.124375	0.125
0.0152	0.124375	0.01875
0.015225	0.120625	0.025
0.01525	0.120625	0.08125
0.015275	0.120625	0.03125
0.0153	0.120625	-0.025
0.015325	0.120625	0.0125
0.01535	0.120625	0.0875
0.015375	0.120625	0.0125
0.0154	0.120625	0.0625
0.015425	0.120625	-0.03125
0.01545	0.120625	0.10625
0.015475	0.11125	0.05
0.0155	0.11125	0.01875
0.015525	0.11125	0.05625
0.01555	0.11125	0.03125
0.015575	0.11125	0.0875
0.0156	0.11125	0.1125
0.015625	0.11125	0.05625
0.01565	0.11125	0.06875
0.015675	0.11125	0.1
0.0157	0.11125	0.0625
0.015725	0.095625	0.125
0.01575	0.095625	0.025
0.015775	0.095625	0.03125
0.0158	0.095625	-0.0125
0.015825	0.095625	0.0875
0.01585	0.095625	0.075
0.015875	0.095625	0.075
0.0159	0.095625	0.06875
0.015925	0.095625	0.1
0.01595	0.095625	0.16875
0.015975	0.113125	0.1
0.016	0.113125	0.01875
0.016025	0.113125	0.05
0.01605	0.113125	0.0375
0.016075	0.113125	-0.05
0.0161	0.113125	0.08125
0.016125	0.113125	0.025
0.01615	0.113125	0.04375
0.016175	0.113125	0.05625
0.0162	0.113125	0.025
0.016225	0.116875	0.05
0.01625	0.116875	0.04375
0.016275	0.116875	0.01875
0.0163	0.116875	-0.00625
0.016325	0.116875	0.05
0.01635	0.116875	0.0125
0.016375	0.116875	-0.00625
0.0164	0.116875	0.0125
0.016425	0.116875	-0.025
0.01645	0.116875	0.05
0.016475	0.131875	0.04375
0.0165	0.131875	0.075
0.016525	0.131875	0.0625
0.01655	0.131875	0
0.016575	0.131875	-0.0375
0.0166	0.131875	0
0.016625	0.131875	0
0.01665	0.131875	0.0125
0.016675	0.131875	0.0125
0.0167	0.131875	0.00625
0.016725	0.138125	0.0625
0.01675	0.138125	0.03125
0.016775	0.138125	0.01875
0.0168	0.138125	0.025
0.016825	0.138125	0.01875
0.01685	0.138125	0.05625
0.016875	0.138125	0.0125
0.0169	0.138125	0.08125
0.016925	0.138125	0.09375
0.01695	0.138125	0.10625
0.016975	0.11625	0.0125
0.017	0.11625	0.08125
0.017025	0.11625	0.1
0.01705	0.11625	0.04375
0.017075	0.11625	0.04375
0.0171	0.11625	0
0.017125	0.11625	-0.01875
0.01715	0.11625	0.09375
0.017175	0.11625	0.0125
0.0172	0.11625	0.11875
0.017225	0.114375	0.04375
0.01725	0.114375	0.03125
0.017275	0.114375	-0.075
0.0173	0.114375	0.08125
0.017325	0.114375	0.1125
0.01735	0.114375	0.0875
0.017375	0.114375	0.075
0.0174	0.114375	0.0375
0.017425	0.114375	0.13125
0.01745	0.114375	0.03125
0.017475	0.095625	0.05625
0.0175	0.095625	0.1
0.017525	0.095625	0.13125
0.01755	0.095625	0.05
0.017575	0.095625	-0.00625
0.0176	0.095625	0.025
0.017625	0.095625	0.125
0.01765	0.095625	0.01875
0.017675	0.095625	0.08125
0.0177	0.095625	0.06875
0.017725	0.093125	0.0375
0.01775	0.093125	0.14375
0.017775	0.093125	0.06875
0.0178	0.093125	0.08125
0.017825	0.093125	0.1
0.01785	0.093125	0.06875
0.017875	0.093125	0
0.0179	0.093125	0.0875
0.017925	0.093125	0.075
0.01795	0.093125	0.03125
0.017975	0.116875	0.06875
0.018	0.116875	0.05
0.018025	0.116875	0.125
0.01805	0.116875	0.075
0.018075	0.116875	0.00625
0.0181	0.116875	0
0.018125	0.116875	0.03125
0.01815	0.116875	0.00625
0.018175	0.116875	0.09375
0.0182	0.116875	-0.00625
0.018225	0.120625	0.08125
0.01825	0.120625	0.05
0.018275	0.120625	0.09375
0.0183	0.120625	0.1125
0.018325	0.120625	-0.0125
0.01835	0.120625	0.00625
0.018375	0.120625	0
0.0184	0.120625	0.03125
0.018425	0.120625	0.06875
0.01845	0.120625	0.05625
0.018475	0.144375	0.125
0.0185	0.144375	0.0125
0.018525	0.144375	0.05
0.01855	0.144375	0.08125
0.018575	0.144375	0.05625
0.0186	0.144375	0.10625
0.018625	0.144375	-0.0125
0.01865	0.144375	0.05625
0.018675	0.144375	-0.03125
0.0187	0.144375	0.01875
0.018725	0.145625	0.0625
0.01875	0.145625	0.09375
0.018775	0.145625	0.01875
0.0188	0.145625	0.05
0.018825	0.145625	0.05
0.01885	0.145625	0.025
0.018875	0.145625	0.025
0.0189	0.145625	-0.03125
0.018925	0.145625	0.05625
0.01895	0.145625	0.08125
0.018975	0.1375	0.08125
0.019	0.1375	-0.0125
0.019025	0.1375	0.08125
0.01905	0.1375	-0.05625
0.019075	0.1375	0.05625
0.0191	0.1375	0.0125
0.019125	0.1375	-0.05
0.01915	0.1375	0.03125
0.019175	0.1375	-0.0375
0.0192	0.1375	0.0125
0.019225	0.1275	0.1
0.01925	0.1275	0.0875
0.019275	0.1275	0.0625
0.0193	0.1275	0.0625
0.019325	0.1275	-0.0125
0.01935	0.1275	-0.05625
0.019375	0.1275	0.1125
0.0194	0.1275	0.10625
0.019425	0.1275	0.10625
0.01945	0.1275	0.075
0.019475	0.106875	0.09375
0.0195	0.106875	0.00625
0.019525	0.106875	0.0625
0.01955	0.106875	0.1125
0.019575	0.106875	0
0.0196	0.106875	0.0875
0.019625	0.106875	0.00625
0.01965	0.106875	0.05
0.019675	0.106875	-0.01875
0.0197	0.106875	0.0625
0.019725	0.11875	0.1
0.01975	0.11875	0.03125
0.019775	0.11875	0.05625
0.0198	0.11875	0.04375
0.019825	0.11875	0.125
0.01985	0.11875	0.05625
0.019875	0.11875	0.0375
0.0199	0.11875	0.025
0.019925	0.11875	-0.04375
0.01995	0.11875	-0.03125
0.019975	0.126875	0.15
0.02	0.126875	0.05625
0.020025	0.126875	-0.05625
0.02005	0.126875	0.04375
0.020075	0.126875	0.175
0.0201	0.126875	0.10625
0.020125	0.126875	-0.0625
0.02015	0.126875	0.03125
0.020175	0.126875	0.13125
0.0202	0.126875	0.06875
0.020225	0.131875	0.05625
0.02025	0.131875	0.05625
0.020275	0.131875	0.0125
0.0203	0.131875	-0.025
0.020325	0.131875	0.01875
0.02035	0.131875	0.11875
0.020375	0.131875	-0.04375
0.0204	0.131875	0.05
0.020425	0.131875	0.03125
0.02045	0.131875	0.0625
0.020475	0.15625	0.14375
0.0205	0.15625	0.025
0.020525	0.15625	0.01875
0.02055	0.15625	0.04375
0.020575	0.15625	0.025
0.0206	0.15625	0
0.020625	0.15625	-0.00625
0.02065	0.15625	0.125
0.020675	0.15625	0.06875
0.0207	0.15625	0.0125
0.020725	0.135625	0.13125
0.02075	0.135625	-0.03125
0.020775	0.135625	-0.05
0.0208	0.135625	0.01875
0.020825	0.135625	0.125
0.02085	0.135625	0.03125
0.020875	0.135625	0.0625
0.0209	0.135625	-0.025
0.020925	0.135625	0.03125
0.02095	0.135625	0.025
0.020975	0.1225	0.04375
0.021	0.1225	0.00625
0.021025	0.1225	0.1
0.02105	0.1225	0.11875
0.021075	0.1225	0.0125
0.0211	0.1225	0.08125
0.021125	0.1225	0.05625
0.02115	0.1225	0.025
0.021175	0.1225	0.1375
0.0212	0.1225	0.11875
0.021225	0.124375	0.075
0.02125	0.124375	-0.025
0.021275	0.124375	-0.00625
0.0213	0.124375	0.0625
0.021325	0.124375	0.05625
0.02135	0.124375	0.06875
0.021375	0.124375	0.1125
0.0214	0.124375	0.05625
0.021425	0.124375	0.06875
0.02145	0.124375	-0.04375
0.021475	0.100625	0.04375
0.0215	0.100625	0.1
0.021525	0.100625	0.04375
0.02155	0.100625	0.05
0.021575	0.100625	0.0125
0.0216	0.100625	-0.03125
0.021625	0.100625	0.1
0.02165	0.100625	0.1125
0.021675	0.100625	0.05625
0.0217	0.100625	0.0125
0.021725	0.1125	0.075
0.02175	0.1125	0.03125
0.021775	0.1125	-0.05
0.0218	0.1125	0.025
0.021825	0.1125	-0.04375
0.02185	0.1125	0.0375
0.021875	0.1125	0.08125
0.0219	0.1125	0.0875
0.021925	0.1125	0.11875
0.02195	0.1125	0.04375
0.021975	0.124375	0.1
0.022	0.124375	0.0375
0.022025	0.124375	0.08125
0.02205	0.124375	0.0375
0.022075	0.124375	0.1625
0.0221	0.124375	0.0125
0.022125	0.124375	0.0875
0.02215	0.124375	0.15625
0.022175	0.124375	0.03125
0.0222	0.124375	0.06875
0.022225	0.129375	-0.025
0.02225	0.129375	0.00625
0.022275	0.129375	-0.04375
0.0223	0.129375	0.075
0.022325	0.129375	0.06875
0.02235	0.129375	0.04375
0.022375	0.129375	0.05625
0.0224	0.129375	0.01875
0.022425	0.129375	-0.03125
0.02245	0.129375	-0.00625
0.022475	0.1575	0.06875
0.0225	0.1575	0.06875
0.022525	0.1575	0.0625
0.02255	0.1575	0.1875
0.022575	0.1575	0.01875
0.0226	0.1575	0.08125
0.022625	0.1575	0.06875
0.02265	0.1575	0.00625
0.022675	0.1575	0.05
0.0227	0.1575	0.0875
0.022725	0.135	0.1
0.02275	0.135	0.08125
0.022775	0.135	0.10625
0.0228	0.135	0.05625
0.022825	0.135	0
0.02285	0.135	0.0125
0.022875	0.135	0.05625
0.0229	0.135	0.075
0.022925	0.135	0.0625
0.02295	0.135	-0.06875
0.022975	0.126875	0.13125
0.023	0.126875	0.10625
0.023025	0.126875	0.1
0.02305	0.126875	0.025
0.023075	0.126875	-0.01875
0.0231	0.126875	0.0375
0.023125	0.126875	0.0125
0.02315	0.126875	0.1375
0.023175	0.126875	0.04375
0.0232	0.126875	0.06875
0.023225	0.128125	0.03125
0.02325	0.128125	0.00625
0.023275	0.128125	-0.0125
0.0233	0.128125	0.06875
0.023325	0.128125	0.0125
0.02335	0.128125	0.0625
0.023375	0.128125	0.0375
0.0234	0.128125	0.075
0.023425	0.128125	0.05625
0.02345	0.128125	0.08125
0.023475	0.09	0.03125
0.0235	0.09	-0.06875
0.023525	0.09	0.0625
0.02355	0.09	0.13125
0.023575	0.09	0.0375
0.0236	0.09	0.05
0.023625	0.09	0.04375
0.02365	0.09	0.0625
0.023675	0.09	-0.04375
0.0237	0.09	-0.00625
0.023725	0.116875	0.04375
0.02375	0.116875	0.01875
0.023775	0.116875	0.09375
0.0238	0.116875	0.00625
0.023825	0.116875	0.13125
0.02385	0.116875	0.05
0.023875	0.116875	0.00625
0.0239	0.116875	0.09375
0.023925	0.116875	0.14375
0.02395	0.116875	0.025
0.023975	0.12125	0.0375
0.024	0.12125	0.06875
0.024025	0.12125	0
0.02405	0.12125	0.125
0.024075	0.12125	0.075
0.0241	0.12125	0.10625
0.024125	0.12125	0.0875
0.02415	0.12125	0.03125
0.024175	0.12125	0.08125
0.0242	0.12125	0.00625
0.024225	0.125	0.075
0.02425	0.125	0.0875
0.024275	0.125	0.09375
0.0243	0.125	0.00625
0.024325	0.125	0.05625
0.02435	0.125	0.11875
0.024375	0.125	0.0125
0.0244	0.125	0.05625
0.024425	0.125	0.04375
0.02445	0.125	0.13125
0.024475	0.149375	-0.03125
0.0245	0.149375	0.1
0.024525	0.149375	0.075
0.02455	0.149375	0.05625
0.024575	0.149375	0.10625
0.0246	0.149375	0.075
0.024625	0.149375	0.0375
0.02465	0.149375	0.05
0.024675	0.149375	0.06875
0.0247	0.149375	0.06875
0.024725	0.129375	-0.01875
0.02475	0.129375	0.08125
0.024775	0.129375	0.1
0.0248	0.129375	-0.01875
0.024825	0.129375	-0.00625
0.02485	0.129375	0.01875
0.024875	0.129375	0
0.0249	0.129375	0.06875
0.024925	0.129375	-0.0625
0.02495	0.129375	0.01875
0.024975	0.121875	0.04375
0.025	0.121875	0.09375
0.025025	0.121875	0.1
0.02505	0.121875	0.1375
0.025075	0.121875	0.01875
0.0251	0.121875	0.08125
0.025125	0.121875	0.01875
0.02515	0.121875	0.1
0.025175	0.121875	0.13125
0.0252	0.121875	0.0625
0.025225	0.114375	0.025
0.02525	0.114375	0.11875
0.025275	0.114375	0.0875
0.0253	0.114375	0.1375
0.025325	0.114375	0.15
0.02535	0.114375	0.05625
0.025375	0.114375	0.16875
0.0254	0.114375	0.21875
0.025425	0.114375	0.03125
0.02545	0.114375	0.00625
0.025475	0.095625	0.09375
0.0255	0.095625	-0.01875
0.025525	0.095625	0.03125
0.02555	0.095625	0
0.025575	0.095625	0.025
0.0256	0.095625	0.05625
0.025625	0.095625	0.125
0.02565	0.095625	0.0625
0.025675	0.095625	0.03125
0.0257	0.095625	0.05
0.025725	0.115	0.04375
0.02575	0.115	0.10625
0.025775	0.115	-0.0125
0.0258	0.115	0.0625
0.025825	0.115	0.075
0.02585	0.115	0.10625
0.025875	0.115	0.04375
0.0259	0.115	0.08125
0.025925	0.115	-0.04375
0.02595	0.115	0.025
0.025975	0.123125	0.01875
0.026	0.123125	0.1
0.026025	0.123125	0.11875
0.02605	0.123125	0.11875
0.026075	0.123125	0.05625
0.0261	0.123125	0.1375
0.026125	0.123125	0.03125
0.02615	0.123125	0.1375
0.026175	0.123125	0.03125
0.0262	0.123125	0.0625
0.026225	0.139375	0.05625
0.02625	0.139375	0.075
0.026275	0.139375	-0.00625
0.0263	0.139375	0.03125
0.026325	0.139375	0.0125
0.02635	0.139375	0.08125
0.026375	0.139375	0.0875
0.0264	0.139375	-0.01875
0.026425	0.139375	0.025
0.02645	0.139375	0.1
0.026475	0.1475	0.05
0.0265	0.1475	-0.0125
0.026525	0.1475	0.0375
0.02655	0.1475	0.0625
0.026575	0.1475	0.06875
0.0266	0.1475	0.0375
0.026625	0.1475	0.03125
0.02665	0.1475	0.0375
0.026675	0.1475	0.08125
0.0267	0.1475	0.10625
0.026725	0.13	-0.01875
0.02675	0.13	0.0875
0.026775	0.13	0.09375
0.0268	0.13	-0.00625
0.026825	0.13	0.08125
0.02685	0.13	0.0875
0.026875	0.13	0.08125
0.0269	0.13	0.04375
0.026925	0.13	0.0375
0.02695	0.13	0
0.026975	0.12625	0.0875
0.027	0.12625	0.03125
0.027025	0.12625	0.0875
0.02705	0.12625	0.01875
0.027075	0.12625	0.11875
0.0271	0.12625	0.05625
0.027125	0.12625	0.03125
0.02715	0.12625	0.09375
0.027175	0.12625	0.08125
0.0272	0.12625	0.1375
0.027225	0.10625	0.0375
0.02725	0.10625	0.05625
0.027275	0.10625	-0.0125
0.0273	0.10625	0.11875
0.027325	0.10625	-0.06875
0.02735	0.10625	0.09375
0.027375	0.10625	0.11875
0.0274	0.10625	0.15625
0.027425	0.10625	0.04375
0.02745	0.10625	0.075
0.027475	0.105625	0.06875
0.0275	0.105625	0.04375
0.027525	0.105625	0.01875
0.02755	0.105625	0.08125
0.027575	0.105625	0.04375
0.0276	0.105625	0.08125
0.027625	0.105625	0.13125
0.02765	0.105625	0.05
0.027675	0.105625	0.0625
0.0277	0.105625	0.11875
0.027725	0.128125	-0.0125
0.02775	0.128125	0.08125
0.027775	0.128125	0.1375
0.0278	0.128125	0.03125
0.027825	0.128125	0.0375
0.02785	0.128125	-0.06875
0.027875	0.128125	0.09375
0.0279	0.128125	0.0875
0.027925	0.128125	-0.0125
0.02795	0.128125	0.04375
0.027975	0.128125	0.075
0.028	0.128125	0.0625
0.028025	0.128125	-0.00625
0.02805	0.128125	-0.0125
0.028075	0.128125	-0.00625
0.0281	0.128125	0.03125
0.028125	0.128125	0.0375
0.02815	0.128125	0.05625
0.028175	0.128125	0.05
0.0282	0.128125	0.04375
0.028225	0.14875	0.075
0.02825	0.14875	0.08125
0.028275	0.14875	0.10625
0.0283	0.14875	-0.0125
0.028325	0.14875	0.1
0.02835	0.14875	0.14375
0.028375	0.14875	0.11875
0.0284	0.14875	0.08125
0.028425	0.14875	0.06875
0.02845	0.14875	0.08125
0.028475	0.1475	0.09375
0.0285	0.1475	-0.00625
0.028525	0.1475	0.01875
0.02855	0.1475	0.13125
0.028575	0.1475	0.0375
0.0286	0.1475	0.03125
0.028625	0.1475	0.11875
0.02865	0.1475	0.125
0.028675	0.1475	0.05
0.0287	0.1475	0.1125
0.028725	0.131875	0.04375
0.02875	0.131875	-0.0125
0.028775	0.131875	0.08125
0.0288	0.131875	0.1
0.028825	0.131875	0.08125
0.02885	0.131875	0.20625
0.028875	0.131875	0.09375
0.0289	0.131875	0.05625
0.028925	0.131875	0.0875
0.02895	0.131875	0.00625
0.028975	0.12625	0.1375
0.029	0.12625	0.0625
0.029025	0.12625	0.0375
0.02905	0.12625	-0.00625
0.029075	0.12625	0.1
0.0291	0.12625	0.13125
0.029125	0.12625	0.125
0.02915	0.12625	0.1
0.029175	0.12625	0.08125
0.0292	0.12625	0.09375
0.029225	0.1025	0.10625
0.02925	0.1025	0.1
0.029275	0.1025	0.14375
0.0293	0.1025	0.025
0.029325	0.1025	0.05625
0.02935	0.1025	0.0375
0.029375	0.1025	-0.0625
0.0294	0.1025	0.075
0.029425	0.1025	0.01875
0.02945	0.1025	-0.025
0.029475	0.118125	0.05625
0.0295	0.118125	0.08125
0.029525	0.118125	0.09375
0.02955	0.118125	0.0875
0.029575	0.118125	0.09375
0.0296	0.118125	0.09375
0.029625	0.118125	0.03125
0.02965	0.118125	0.10625
0.029675	0.118125	0.03125
0.0297	0.118125	0.05625
0.029725	0.130625	0.10625
0.02975	0.130625	0.1375
0.029775	0.130625	0.09375
0.0298	0.130625	0.05625
0.029825	0.130625	0.0625
0.02985	0.130625	0.04375
0.029875	0.130625	0.04375
0.0299	0.130625	0.15625
0.029925	0.130625	0.05625
0.02995	0.130625	0.08125
0.029975	0.130625	0.06875
0.03	0.130625	0.0625
0.030025	0.130625	0.08125
0.03005	0.130625	0.125
0.030075	0.130625	0.10625
0.0301	0.130625	0.0875
0.030125	0.130625	0.06875
0.03015	0.130625	0.14375
0.030175	0.130625	0.16875
0.0302	0.130625	0.0625
0.030225	0.16	0.04375
0.03025	0.16	-0.03125
0.030275	0.16	0.11875
0.0303	0.16	0.06875
0.030325	0.16	0.0625
0.03035	0.16	0.0125
0.030375	0.16	0.08125
0.0304	0.16	0.1
0.030425	0.16	0.025
0.03045	0.16	0.10625
0.030475	0.141875	0.04375
0.0305	0.141875	0.08125
0.030525	0.141875	0.15
0.03055	0.141875	0.125
0.030575	0.141875	0.11875
0.0306	0.141875	0.08125
0.030625	0.141875	0.175
0.03065	0.141875	0.08125
0.030675	0.141875	0.05
0.0307	0.141875	0.10625
0.030725	0.12875	0.1625
0.03075	0.12875	-0.00625
0.030775	0.12875	0.00625
0.0308	0.12875	0.10625
0.030825	0.12875	0.05625
0.03085	0.12875	0.175
0.030875	0.12875	0.0625
0.0309	0.12875	0
0.030925	0.12875	0.00625
0.03095	0.12875	0.08125
0.030975	0.133125	0.09375
0.031	0.133125	0.0375
0.031025	0.133125	0.1125
0.03105	0.133125	0.06875
0.031075	0.133125	0.05625
0.0311	0.133125	0.05
0.031125	0.133125	0.08125
0.03115	0.133125	0.05
0.031175	0.133125	0.075
0.0312	0.133125	0.06875
0.031225	0.1025	-0.0125
0.03125	0.1025	0.08125
0.031275	0.1025	0.11875
0.0313	0.1025	0.09375
0.031325	0.1025	0.08125
0.03135	0.1025	0.13125
0.031375	0.1025	0.1
0.0314	0.1025	0.10625
0.031425	0.1025	0.05625
0.03145	0.1025	0
0.031475	0.1225	0
0.0315	0.1225	0.05625
0.031525	0.1225	0.1
0.03155	0.1225	0.05
0.031575	0.1225	0.0625
0.0316	0.1225	0.01875
0.031625	0.1225	0.09375
0.03165	0.1225	0.0875
0.031675	0.1225	0.075
0.0317	0.1225	0.09375
0.031725	0.12875	0.13125
0.03175	0.12875	0.13125
0.031775	0.12875	0.13125
0.0318	0.12875	0.06875
0.031825	0.12875	0.06875
0.03185	0.12875	0.0875
0.031875	0.12875	0.08125
0.0319	0.12875	0.11875
0.031925	0.12875	0.1125
0.03195	0.12875	0.0125
0.031975	0.129375	-0.025
0.032	0.129375	0.0125
0.032025	0.129375	0
0.03205	0.129375	0.06875
0.032075	0.129375	0.01875
0.0321	0.129375	0.10625
0.032125	0.129375	0.03125
0.03215	0.129375	0.04375
0.032175	0.129375	-0.0125
0.0322	0.129375	0.0875
0.032225	0.15875	0.0375
0.03225	0.15875	0.00625
0.032275	0.15875	0.0875
0.0323	0.15875	-0.0125
0.032325	0.15875	0.0875
0.03235	0.15875	0.0875
0.032375	0.15875	0.05
0.0324	0.15875	0.0625
0.032425	0.15875	0.0625
0.03245	0.15875	0.025
0.032475	0.140625	0.10625
0.0325	0.140625	0.0625
0.032525	0.140625	0.1125
0.03255	0.140625	0.15
0.032575	0.140625	0.08125
0.0326	0.140625	0.0875
0.032625	0.140625	0.0125
0.03265	0.140625	0.08125
0.032675	0.140625	-0.0375
0.0327	0.140625	0.1
0.032725	0.1325	0.06875
0.03275	0.1325	0.15
0.032775	0.1325	0.05625
0.0328	0.1325	0
0.032825	0.1325	0.0375
0.03285	0.1325	0.10625
0.032875	0.1325	0.0375
0.0329	0.1325	0.0375
0.032925	0.1325	0
0.03295	0.1325	0.04375
0.032975	0.126875	0.03125
0.033	0.126875	0.06875
0.033025	0.126875	0.075
0.03305	0.126875	0.0375
0.033075	0.126875	0.05
0.0331	0.126875	0.06875
0.033125	0.126875	0.1
0.03315	0.126875	0.0125
0.033175	0.126875	0.00625
0.0332	0.126875	0.10625
0.033225	0.10125	0.05
0.03325	0.10125	0.1
0.033275	0.10125	0.14375
0.0333	0.10125	0.0625
0.033325	0.10125	0.04375
0.03335	0.10125	0.03125
0.033375	0.10125	0.11875
0.0334	0.10125	-0.0625
0.033425	0.10125	0.04375
0.03345	0.10125	-0.00625
0.033475	0.124375	0.04375
0.0335	0.124375	0.075
0.033525	0.124375	0.10625
0.03355	0.124375	0.0625
0.033575	0.124375	0.1125
0.0336	0.124375	0.04375
0.033625	0.124375	0.125
0.03365	0.124375	0.0625
0.033675	0.124375	0.08125
0.0337	0.124375	0.01875
0.033725	0.13125	0.11875
0.03375	0.13125	0.0875
0.033775	0.13125	0.01875
0.0338	0.13125	0.16875
0.033825	0.13125	0.11875
0.03385	0.13125	0.1
0.033875	0.13125	0
0.0339	0.13125	0.075
0.033925	0.13125	0.10625
0.03395	0.13125	0.125
0.033975	0.138125	0.09375
0.034	0.138125	0.16875
0.034025	0.138125	0.05625
0.03405	0.138125	0.1625
0.034075	0.138125	-0.025
0.0341	0.138125	0.1
0.034125	0.138125	0.04375
0.03415	0.138125	0.05625
0.034175	0.138125	0.15625
0.0342	0.138125	0.10625
0.034225	0.165	0.06875
0.03425	0.165	0.08125
0.034275	0.165	0.06875
0.0343	0.165	0.05
0.034325	0.165	0.06875
0.03435	0.165	0.06875
0.034375	0.165	0.03125
0.0344	0.165	0.0625
0.034425	0.165	0.01875
0.03445	0.165	0.00625
0.034475	0.14125	0.1125
0.0345	0.14125	0.1125
0.034525	0.14125	0.13125
0.03455	0.14125	0.075
0.034575	0.14125	0.09375
0.0346	0.14125	0.05625
0.034625	0.14125	0.1
0.03465	0.14125	0.04375
0.034675	0.14125	0.1
0.0347	0.14125	0.0375
0.034725	0.134375	0.1625
0.03475	0.134375	0.08125
0.034775	0.134375	0.0625
0.0348	0.134375	-0.0125
0.034825	0.134375	0.05625
0.03485	0.134375	0.025
0.034875	0.134375	0.04375
0.0349	0.134375	0.03125
0.034925	0.134375	0.08125
0.03495	0.134375	0.0125
0.034975	0.124375	0.04375
0.035	0.124375	0.0125
0.035025	0.124375	0.05
0.03505	0.124375	0.1375
0.035075	0.124375	0.0625
0.0351	0.124375	0.04375
0.035125	0.124375	0.0625
0.03515	0.124375	0.08125
0.035175	0.124375	0.05625
0.0352	0.124375	0.0125
0.035225	0.10625	0.08125
0.03525	0.10625	0.1125
0.035275	0.10625	0.08125
0.0353	0.10625	0.04375
0.035325	0.10625	-0.01875
0.03535	0.10625	0.0125
0.035375	0.10625	0.15
0.0354	0.10625	0.0625
0.035425	0.10625	0.08125
0.03545	0.10625	0.025
0.035475	0.124375	0.05
0.0355	0.124375	0.03125
0.035525	0.124375	-0.05
0.03555	0.124375	0.10625
0.035575	0.124375	0.04375
0.0356	0.124375	0.1375
0.035625	0.124375	0.0875
0.03565	0.124375	0.06875
0.035675	0.124375	0.10625
0.0357	0.124375	0.125
0.035725	0.133125	0.0125
0.03575	0.133125	0.11875
0.035775	0.133125	0.06875
0.0358	0.133125	0.08125
0.035825	0.133125	0.06875
0.03585	0.133125	0.075
0.035875	0.133125	0.025
0.0359	0.133125	0.075
0.035925	0.133125	0.09375
0.03595	0.133125	-0.05
0.035975	0.145	0.05625
0.036	0.145	0.0875
0.036025	0.145	0.03125
0.03605	0.145	0.0125
0.036075	0.145	0.05625
0.0361	0.145	0.09375
0.036125	0.145	0.0875
0.03615	0.145	0.10625
0.036175	0.145	0.08125
0.0362	0.145	0.11875
0.036225	0.1525	-0.10625
0.03625	0.1525	0.075
0.036275	0.1525	0.15625
0.0363	0.1525	0.03125
0.036325	0.1525	0.04375
0.03635	0.1525	0.0875
0.036375	0.1525	0.03125
0.0364	0.1525	0.10625
0.036425	0.1525	0.03125
0.03645	0.1525	0.16875
0.036475	0.12875	0.1125
0.0365	0.12875	0.075
0.036525	0.12875	0
0.03655	0.12875	0.1
0.036575	0.12875	0.01875
0.0366	0.12875	0.11875
0.036625	0.12875	0.1125
0.03665	0.12875	0.00625
0.036675	0.12875	0.025
0.0367	0.12875	0.06875
0.036725	0.125	0.18125
0.03675	0.125	-0.0125
0.036775	0.125	0.03125
0.0368	0.125	0.1
0.036825	0.125	0.14375
0.03685	0.125	0.0625
0.036875	0.125	0.08125
0.0369	0.125	0.03125
0.036925	0.125	0.0375
0.03695	0.125	0.00625
0.036975	0.10875	0.04375
0.037	0.10875	0.05
0.037025	0.10875	0.14375
0.03705	0.10875	0.15625
0.037075	0.10875	0.1
0.0371	0.10875	-0.00625
0.037125	0.10875	0.125
0.03715	0.10875	0.08125
0.037175	0.10875	0.08125
0.0372	0.10875	0.10625
0.037225	0.1025	0.06875
0.03725	0.1025	-0.00625
0.037275	0.1025	0.0625
0.0373	0.1025	0.05
0.037325	0.1025	0.06875
0.03735	0.1025	0.1
0.037375	0.1025	0.04375
0.0374	0.1025	0.06875
0.037425	0.1025	0.06875
0.03745	0.1025	0.09375
0.037475	0.119375	0.04375
0.0375	0.119375	0.1
0.037525	0.119375	0.08125
0.03755	0.119375	-0.00625
0.037575	0.119375	0.0875
0.0376	0.119375	0.0625
0.037625	0.119375	0.0875
0.03765	0.119375	0.10625
0.037675	0.119375	0.08125
0.0377	0.119375	0.06875
0.037725	0.124375	0.075
0.03775	0.124375	0.1125
0.037775	0.124375	0.1375
0.0378	0.124375	0.00625
0.037825	0.124375	0.15
0.03785	0.124375	0.0875
0.037875	0.124375	0.08125
0.0379	0.124375	0.09375
0.037925	0.124375	0.11875
0.03795	0.124375	0.11875
0.037975	0.144375	0.19375
0.038	0.144375	0.10625
0.038025	0.144375	0.08125
0.03805	0.144375	0.00625
0.038075	0.144375	0.06875
0.0381	0.144375	0.09375
0.038125	0.144375	0.025
0.03815	0.144375	0.04375
0.038175	0.144375	0.09375
0.0382	0.144375	0.1
0.038225	0.14625	0.0125
0.03825	0.14625	-0.05
0.038275	0.14625	0.0875
0.0383	0.14625	0.09375
0.038325	0.14625	0.16875
0.03835	0.14625	0.15
0.038375	0.14625	0.0125
0.0384	0.14625	0.01875
0.038425	0.14625	0.05
0.03845	0.14625	-0.0125
0.038475	0.129375	0.08125
0.0385	0.129375	0.15
0.038525	0.129375	-0.03125
0.03855	0.129375	0.1
0.038575	0.129375	0.03125
0.0386	0.129375	0.1125
0.038625	0.129375	0.0625
0.03865	0.129375	0.0125
0.038675	0.129375	0.05625
0.0387	0.129375	0.00625
0.038725	0.123125	0.06875
0.03875	0.123125	0.11875
0.038775	0.123125	0.08125
0.0388	0.123125	0.04375
0.038825	0.123125	0.05625
0.03885	0.123125	0.05625
0.038875	0.123125	0.0125
0.0389	0.123125	-0.0125
0.038925	0.123125	0.0625
0.03895	0.123125	-0.025
0.038975	0.098125	0.0875
0.039	0.098125	0.10625
0.039025	0.098125	0.08125
0.03905	0.098125	0.01875
0.039075	0.098125	0.1
0.0391	0.098125	0.08125
0.039125	0.098125	0.15625
0.03915	0.098125	0.0375
0.039175	0.098125	0.04375
0.0392	0.098125	0.0375
0.039225	0.1075	0.11875
0.03925	0.1075	0.0375
0.039275	0.1075	0.075
0.0393	0.1075	-0.025
0.039325	0.1075	0.09375
0.03935	0.1075	0.11875
0.039375	0.1075	0.09375
0.0394	0.1075	0.10625
0.039425	0.1075	0.13125
0.03945	0.1075	0.05
0.039475	0.116875	0.09375
0.0395	0.116875	0.0875
0.039525	0.116875	0.075
0.03955	0.116875	0.09375
0.039575	0.116875	0.05625
0.0396	0.116875	0.13125
0.039625	0.116875	0.025
0.03965	0.116875	0.0625
0.039675	0.116875	0.175
0.0397	0.116875	0.1125
0.039725	0.120625	0.06875
0.03975	0.120625	0.03125
0.039775	0.120625	0.1
0.0398	0.120625	0.14375
0.039825	0.120625	0.00625
0.03985	0.120625	0.15
0.039875	0.120625	0.075
0.0399	0.120625	0.06875
0.039925	0.120625	0.16875
0.03995	0.120625	0.0625
0.039975	0.1525	0.10625
0.04	0.1525	0.08125
0.040025	0.1525	0.15
0.04005	0.1525	0.11875
0.040075	0.1525	0.11875
0.0401	0.1525	0.05625
0.040125	0.1525	0.10625
0.04015	0.1525	0.0375
0.040175	0.1525	0
0.0402	0.1525	0.05
0.040225	0.13625	0.14375
0.04025	0.13625	-0.0375
0.040275	0.13625	0.09375
0.0403	0.13625	0.11875
0.040325	0.13625	0.05
0.04035	0.13625	0.1
0.040375	0.13625	0.06875
0.0404	0.13625	0.0875
0.040425	0.13625	0.03125
0.04045	0.13625	0.10625
0.040475	0.1225	0.08125
0.0405	0.1225	0.2
0.040525	0.1225	0.0625
0.04055	0.1225	0.025
0.040575	0.1225	0.06875
0.0406	0.1225	0.0625
0.040625	0.1225	0.0375
0.04065	0.1225	0.075
0.040675	0.1225	0.13125
0.0407	0.1225	0.075
0.040725	0.120625	-0.025
0.04075	0.120625	0
0.040775	0.120625	0.06875
0.0408	0.120625	0.06875
0.040825	0.120625	0.075
0.04085	0.120625	0.05625
0.040875	0.120625	0.075
0.0409	0.120625	0.14375
0.040925	0.120625	0.13125
0.04095	0.120625	0.075
0.040975	0.09375	0.04375
0.041	0.09375	0.1125
0.041025	0.09375	0.1125
0.04105	0.09375	0.11875
0.041075	0.09375	0.0625
0.0411	0.09375	0.13125
0.041125	0.09375	0.1375
0.04115	0.09375	0.03125
0.041175	0.09375	0.075
0.0412	0.09375	0.15625
0.041225	0.11125	0.13125
0.04125	0.11125	0.1625
0.041275	0.11125	-0.03125
0.0413	0.11125	0.0875
0.041325	0.11125	0.08125
0.04135	0.11125	0.11875
0.041375	0.11125	0.18125
0.0414	0.11125	0.075
0.041425	0.11125	0.11875
0.04145	0.11125	0.1125
0.041475	0.11875	0.0125
0.0415	0.11875	0.0375
0.041525	0.11875	0.14375
0.04155	0.11875	0.0875
0.041575	0.11875	0.04375
0.0416	0.11875	0.05
0.041625	0.11875	0.08125
0.04165	0.11875	0.025
0.041675	0.11875	0.0625
0.0417	0.11875	0.1375
0.041725	0.12375	0.1625
0.04175	0.12375	0.075
0.041775	0.12375	0.03125
0.0418	0.12375	-0.025
0.041825	0.12375	0.06875
0.04185	0.12375	0.08125
0.041875	0.12375	0.05625
0.0419	0.12375	0.10625
0.041925	0.12375	0.08125
0.04195	0.12375	0.05625
0.041975	0.15125	0.14375
0.042	0.15125	0.125
0.042025	0.15125	0.11875
0.04205	0.15125	0.0625
0.042075	0.15125	0.18125
0.0421	0.15125	0.1125
0.042125	0.15125	0.1375
0.04215	0.15125	0.0875
0.042175	0.15125	0.06875
0.0422	0.15125	0.14375
0.042225	0.133125	-0.01875
0.04225	0.133125	0.1
0.042275	0.133125	0.11875
0.0423	0.133125	-0.00625
0.042325	0.133125	0.05625
0.04235	0.133125	0.025
0.042375	0.133125	0.09375
0.0424	0.133125	0.08125
0.042425	0.133125	0.16875
0.04245	0.133125	0.10625
0.042475	0.126875	0.1
0.0425	0.126875	0.125
0.042525	0.126875	0.1375
0.04255	0.126875	-0.00625
0.042575	0.126875	0.11875
0.0426	0.126875	0.0375
0.042625	0.126875	0.1
0.04265	0.126875	0.0625
0.042675	0.126875	0.0125
0.0427	0.126875	0.1375
0.042725	0.12125	0.03125
0.04275	0.12125	0.15625
0.042775	0.12125	0
0.0428	0.12125	0.16875
0.042825	0.12125	0.075
0.04285	0.12125	0.125
0.042875	0.12125	0.1375
0.0429	0.12125	0.0875
0.042925	0.12125	0
0.04295	0.12125	0.00625
0.042975	0.09125	0.08125
0.043	0.09125	0.1
0.043025	0.09125	0.13125
0.04305	0.09125	0.0375
0.043075	0.09125	0.0875
0.0431	0.09125	0.05
0.043125	0.09125	0.10625
0.04315	0.09125	0.08125
0.043175	0.09125	0.01875
0.0432	0.09125	0.05
0.043225	0.11625	0.06875
0.04325	0.11625	0.03125
0.043275	0.11625	0.1
0.0433	0.11625	0.14375
0.043325	0.11625	0.04375
0.04335	0.11625	0.1125
0.043375	0.11625	0.075
0.0434	0.11625	0.1125
0.043425	0.11625	0.0625
0.04345	0.11625	0.1
0.043475	0.1225	0.15625
0.0435	0.1225	0.08125
0.043525	0.1225	0.1
0.04355	0.1225	0.08125
0.043575	0.1225	0.1125
0.0436	0.1225	0.05625
0.043625	0.1225	0.09375
0.04365	0.1225	0.06875
0.043675	0.1225	0.0625
0.0437	0.1225	0.11875
0.043725	0.131875	0.10625
0.04375	0.131875	0.05625
0.043775	0.131875	0.1625
0.0438	0.131875	0.025
0.043825	0.131875	0.0875
0.04385	0.131875	0.075
0.043875	0.131875	0.05
0.0439	0.131875	0.05
0.043925	0.131875	0.05625
0.04395	0.131875	0.16875
0.043975	0.1525	-0.0125
0.044	0.1525	0.1125
0.044025	0.1525	0.04375
0.04405	0.1525	0.1375
0.044075	0.1525	0.05
0.0441	0.1525	0.1
0.044125	0.1525	0.0125
0.04415	0.1525	0.04375
0.044175	0.1525	0.06875
0.0442	0.1525	0.1
0.044225	0.13125	0.05
0.04425	0.13125	0.06875
0.044275	0.13125	0.01875
0.0443	0.13125	0.10625
0.044325	0.13125	0.16875
0.04435	0.13125	-0.01875
0.044375	0.13125	0.11875
0.0444	0.13125	0.10625
0.044425	0.13125	0.1375
0.04445	0.13125	0.11875
0.044475	0.125	0.075
0.0445	0.125	0.1
0.044525	0.125	0.1375
0.04455	0.125	0.09375
0.044575	0.125	0.15625
0.0446	0.125	0.14375
0.044625	0.125	0.09375
0.04465	0.125	0.03125
0.044675	0.125	0.11875
0.0447	0.125	0.075
0.044725	0.120625	0.08125
0.04475	0.120625	0.0625
0.044775	0.120625	0.075
0.0448	0.120625	0.13125
0.044825	0.120625	0.06875
0.04485	0.120625	0.0125
0.044875	0.120625	0.04375
0.0449	0.120625	0.21875
0.044925	0.120625	0.15625
0.04495	0.120625	0.05625
0.044975	0.0975	0.03125
0.045	0.0975	0.01875
0.045025	0.0975	0.0625
0.04505	0.0975	0.05625
0.045075	0.0975	0.13125
0.0451	0.0975	0.18125
0.045125	0.0975	0.03125
0.04515	0.0975	0.0875
0.045175	0.0975	0
0.0452	0.0975	0.00625
0.045225	0.121875	0.1
0.04525	0.121875	0.1375
0.045275	0.121875	0.06875
0.0453	0.121875	0.09375
0.045325	0.121875	0.09375
0.04535	0.121875	0.09375
0.045375	0.121875	0.18125
0.0454	0.121875	0.0625
0.045425	0.121875	0.11875
0.04545	0.121875	0.08125
0.045475	0.13	0.0625
0.0455	0.13	0.06875
0.045525	0.13	0.10625
0.04555	0.13	0.1125
0.045575	0.13	-0.0125
0.0456	0.13	0.05625
0.045625	0.13	0.05
0.04565	0.13	0.09375
0.045675	0.13	0.09375
0.0457	0.13	0.1
0.045725	0.138125	0.04375
0.04575	0.138125	0.10625
0.045775	0.138125	0.00625
0.0458	0.138125	0.025
0.045825	0.138125	0.075
0.04585	0.138125	0.18125
0.045875	0.138125	0.14375
0.0459	0.138125	0.03125
0.045925	0.138125	0.0375
0.04595	0.138125	0.0125
0.045975	0.15375	0.15625
0.046	0.15375	0.1125
0.046025	0.15375	0.025
0.04605	0.15375	0.075
0.046075	0.15375	0.05625
0.0461	0.15375	0.04375
0.046125	0.15375	0.08125
0.04615	0.15375	0.05625
0.046175	0.15375	0.13125
0.0462	0.15375	0.075
0.046225	0.131875	0.1
0.04625	0.131875	0.04375
0.046275	0.131875	0.16875
0.0463	0.131875	0.08125
0.046325	0.131875	0.11875
0.04635	0.131875	0.05
0.046375	0.131875	0.05
0.0464	0.131875	0.1375
0.046425	0.131875	0.01875
0.04645	0.131875	0.14375
0.046475	0.126875	0.0625
0.0465	0.126875	0.11875
0.046525	0.126875	0.1375
0.04655	0.126875	0.08125
0.046575	0.126875	0.01875
0.0466	0.126875	0.10625
0.046625	0.126875	0.025
0.04665	0.126875	0.09375
0.046675	0.126875	0.19375
0.0467	0.126875	0.14375
0.046725	0.11125	0.025
0.04675	0.11125	0.125
0.046775	0.11125	0.075
0.0468	0.11125	0.08125
0.046825	0.11125	0.03125
0.04685	0.11125	0.0875
0.046875	0.11125	0.06875
0.0469	0.11125	0.125
0.046925	0.11125	0.0125
0.04695	0.11125	0.05
0.046975	0.10625	0.15625
0.047	0.10625	0.06875
0.047025	0.10625	0.08125
0.04705	0.10625	0.0875
0.047075	0.10625	0.06875
0.0471	0.10625	0.1
0.047125	0.10625	0.06875
0.04715	0.10625	0
0.047175	0.10625	0.0875
0.0472	0.10625	0.1
0.047225	0.123125	0.11875
0.04725	0.123125	0.1125
0.047275	0.123125	0.01875
0.0473	0.123125	0.075
0.047325	0.123125	0.16875
0.04735	0.123125	0.10625
0.047375	0.123125	0.1625
0.0474	0.123125	0.1375
0.047425	0.123125	0.08125
0.04745	0.123125	0.0375
0.047475	0.1225	0.14375
0.0475	0.1225	0.0125
0.047525	0.1225	0.09375
0.04755	0.1225	0.06875
0.047575	0.1225	0.16875
0.0476	0.1225	0.08125
0.047625	0.1225	0.0875
0.04765	0.1225	0.15
0.047675	0.1225	0.075
0.0477	0.1225	0.13125
0.047725	0.145625	0.125
0.04775	0.145625	0.075
0.047775	0.145625	0.1
0.0478	0.145625	0.0375
0.047825	0.145625	0.13125
0.04785	0.145625	0.0625
0.047875	0.145625	0.0125
0.0479	0.145625	0.09375
0.047925	0.145625	0.05625
0.04795	0.145625	0.10625
0.047975	0.144375	0.05625
0.048	0.144375	0.0125
0.048025	0.144375	0.10625
0.04805	0.144375	0.08125
0.048075	0.144375	0.15
0.0481	0.144375	0.13125
0.048125	0.144375	0.13125
0.04815	0.144375	0.1
0.048175	0.144375	0.05
0.0482	0.144375	0.1625
0.048225	0.13	0.1375
0.04825	0.13	0.08125
0.048275	0.13	0.08125
0.0483	0.13	0.0375
0.048325	0.13	0.075
0.04835	0.13	0.05625
0.048375	0.13	0.075
0.0484	0.13	0.24375
0.048425	0.13	0.11875
0.04845	0.13	0.10625
0.048475	0.123125	0.08125
0.0485	0.123125	0.05
0.048525	0.123125	0.1375
0.04855	0.123125	0.1375
0.048575	0.123125	0.1375
0.0486	0.123125	0.15
0.048625	0.123125	0.1125
0.04865	0.123125	0.08125
0.048675	0.123125	0.1625
0.0487	0.123125	0.075
0.048725	0.106875	0.11875
0.04875	0.106875	0.11875
0.048775	0.106875	0.11875
0.0488	0.106875	0.15
0.048825	0.106875	0.11875
0.04885	0.106875	0.0625
0.048875	0.106875	0.04375
0.0489	0.106875	0.1
0.048925	0.106875	0.0125
0.04895	0.106875	0.18125
0.048975	0.10875	0.0875
0.049	0.10875	0.11875
0.049025	0.10875	0.10625
0.04905	0.10875	0.10625
0.049075	0.10875	0.15
0.0491	0.10875	0.08125
0.049125	0.10875	0.125
0.04915	0.10875	0.14375
0.049175	0.10875	0.05625
0.0492	0.10875	0.13125
0.049225	0.126875	0.04375
0.04925	0.126875	0.13125
0.049275	0.126875	0.1125
0.0493	0.126875	0.125
0.049325	0.126875	0.1
0.04935	0.126875	0.05625
0.049375	0.126875	0.075
0.0494	0.126875	0.175
0.049425	0.126875	0.125
0.04945	0.126875	-0.0125
0.049475	0.13125	0.10625
0.0495	0.13125	0.0625
0.049525	0.13125	0.09375
0.04955	0.13125	0.1
0.049575	0.13125	0.08125
0.0496	0.13125	-0.0125
0.049625	0.13125	0.10625
0.04965	0.13125	0.04375
0.049675	0.13125	0.075
0.0497	0.13125	0.09375
0.049725	0.158125	0.11875
0.04975	0.158125	0.09375
0.049775	0.158125	0.15
0.0498	0.158125	0.10625
0.049825	0.158125	0.05
0.04985	0.158125	0.06875
0.049875	0.158125	0.11875
0.0499	0.158125	0.08125
0.049925	0.158125	0.04375
0.04995	0.158125	0.13125
0.049975	0.14125	0.0625
0.05	0.14125	0.1375
0.050025	0.14125	0.04375
0.05005	0.14125	0.0875
0.050075	0.14125	0.1625
0.0501	0.14125	0.13125
0.050125	0.14125	0.0875
0.05015	0.14125	0.01875
0.050175	0.14125	0.14375
0.0502	0.14125	0.14375
0.050225	0.13	0.0875
0.05025	0.13	0.11875
0.050275	0.13	0.14375
0.0503	0.13	0.05625
0.050325	0.13	0.08125
0.05035	0.13	0.0875
0.050375	0.13	0.00625
0.0504	0.13	0.10625
0.050425	0.13	0.25
0.05045	0.13	0.15
0.050475	0.128125	0.075
0.0505	0.128125	0.16875
0.050525	0.128125	0.10625
0.05055	0.128125	0.13125
0.050575	0.128125	0.01875
0.0506	0.128125	0.05625
0.050625	0.128125	0.03125
0.05065	0.128125	0.14375
0.050675	0.128125	0.05625
0.0507	0.128125	0.08125
0.050725	0.10125	0.0625
0.05075	0.10125	0.11875
0.050775	0.10125	0.1
0.0508	0.10125	0.06875
0.050825	0.10125	0.075
0.05085	0.10125	0.05625
0.050875	0.10125	0.10625
0.0509	0.10125	0.04375
0.050925	0.10125	0.125
0.05095	0.10125	0.06875
0.050975	0.1175	0.06875
0.051	0.1175	-0.00625
0.051025	0.1175	0.03125
0.05105	0.1175	0.04375
0.051075	0.1175	0.14375
0.0511	0.1175	0.1
0.051125	0.1175	0.11875
0.05115	0.1175	0.0875
0.051175	0.1175	0.16875
0.0512	0.1175	0.1
0.051225	0.126875	0.03125
0.05125	0.126875	0.03125
0.051275	0.126875	0.1875
0.0513	0.126875	0.09375
0.051325	0.126875	0.10625
0.05135	0.126875	-0.0125
0.051375	0.126875	0.04375
0.0514	0.126875	0.0375
0.051425	0.126875	0.125
0.05145	0.126875	0.0875
0.051475	0.12625	0.11875
0.0515	0.12625	0.10625
0.051525	0.12625	0.2
0.05155	0.12625	0.09375
0.051575	0.12625	0.075
0.0516	0.12625	0.1375
0.051625	0.12625	0.09375
0.05165	0.12625	0.08125
0.051675	0.12625	0.08125
0.0517	0.12625	0.125
0.051725	0.1575	0.1125
0.05175	0.1575	0.0625
0.051775	0.1575	0.0875
0.0518	0.1575	0.00625
0.051825	0.1575	0.08125
0.05185	0.1575	0.05625
0.051875	0.1575	0.05625
0.0519	0.1575	0.05
0.051925	0.1575	0.13125
0.05195	0.1575	0.11875
0.051975	0.1375	0.15
0.052	0.1375	0.0375
0.052025	0.1375	0.08125
0.05205	0.1375	0.0875
0.052075	0.1375	0.1
0.0521	0.1375	0.06875
0.052125	0.1375	0.14375
0.05215	0.1375	0.15625
0.052175	0.1375	0.125
0.0522	0.1375	0.075
0.052225	0.1275	0.1125
0.05225	0.1275	0.075
0.052275	0.1275	0.06875
0.0523	0.1275	0.16875
0.052325	0.1275	0.11875
0.05235	0.1275	-0.00625
0.052375	0.1275	0.0375
0.0524	0.1275	0.0375
0.052425	0.1275	0.16875
0.05245	0.1275	0.1375
0.052475	0.120625	0.0375
0.0525	0.120625	0.09375
0.052525	0.120625	0.08125
0.05255	0.120625	0.1125
0.052575	0.120625	0.2
0.0526	0.120625	0.0625
0.052625	0.120625	0.0625
0.05265	0.120625	0.125
0.052675	0.120625	0.0625
0.0527	0.120625	0.03125
0.052725	0.094375	0.1
0.05275	0.094375	0.05
0.052775	0.094375	0.01875
0.0528	0.094375	0.1375
0.052825	0.094375	0.0625
0.05285	0.094375	0.0625
0.052875	0.094375	0.13125
0.0529	0.094375	0.01875
0.052925	0.094375	0.09375
0.05295	0.094375	0.11875
0.052975	0.11625	0.175
0.053	0.11625	0.04375
0.053025	0.11625	0.18125
0.05305	0.11625	0.075
0.053075	0.11625	0.09375
0.0531	0.11625	0.11875
0.053125	0.11625	0.1
0.05315	0.11625	0.1125
0.053175	0.11625	0.1
0.0532	0.11625	0.25
0.053225	0.125625	0.13125
0.05325	0.125625	0.20625
0.053275	0.125625	0.08125
0.0533	0.125625	0.1125
0.053325	0.125625	-0.04375
0.05335	0.125625	0.1375
0.053375	0.125625	0.03125
0.0534	0.125625	0.125
0.053425	0.125625	0.10625
0.05345	0.125625	0.08125
0.053475	0.13125	0.15625
0.0535	0.13125	0.05625
0.053525	0.13125	0.13125
0.05355	0.13125	0.15
0.053575	0.13125	0.125
0.0536	0.13125	0.05625
0.053625	0.13125	0.15
0.05365	0.13125	0.0625
0.053675	0.13125	0.10625
0.0537	0.13125	0.1125
0.053725	0.15	0.06875
0.05375	0.15	0.11875
0.053775	0.15	0.14375
0.0538	0.15	0.125
0.053825	0.15	0.10625
0.05385	0.15	0.13125
0.053875	0.15	0.025
0.0539	0.15	0.1375
0.053925	0.15	0.05
0.05395	0.15	0.15625
0.053975	0.1275	0.05625
0.054	0.1275	0.09375
0.054025	0.1275	0.2
0.05405	0.1275	0.08125
0.054075	0.1275	0.06875
0.0541	0.1275	0.1625
0.054125	0.1275	0.03125
0.05415	0.1275	0.01875
0.054175	0.1275	0.15625
0.0542	0.1275	0.08125
0.054225	0.126875	0.08125
0.05425	0.126875	0.15
0.054275	0.126875	0.15625
0.0543	0.126875	0.15
0.054325	0.126875	0.1625
0.05435	0.126875	0.05625
0.054375	0.126875	0.1125
0.0544	0.126875	0.1125
0.054425	0.126875	0.08125
0.05445	0.126875	0.1375
0.054475	0.113125	0.1125
0.0545	0.113125	0.05625
0.054525	0.113125	0.18125
0.05455	0.113125	0.06875
0.054575	0.113125	0.11875
0.0546	0.113125	0.1
0.054625	0.113125	0.11875
0.05465	0.113125	0.05625
0.054675	0.113125	0.10625
0.0547	0.113125	0.15
0.054725	0.09125	0.1375
0.05475	0.09125	0.03125
0.054775	0.09125	0.11875
0.0548	0.09125	0.175
0.054825	0.09125	0.09375
0.05485	0.09125	0.09375
0.054875	0.09125	0.00625
0.0549	0.09125	-0.00625
0.054925	0.09125	0.05625
0.05495	0.09125	0.19375
0.054975	0.115625	0.075
0.055	0.115625	0.1125
0.055025	0.115625	0.125
0.05505	0.115625	-0.01875
0.055075	0.115625	0.0625
0.0551	0.115625	0.1375
0.055125	0.115625	0.1125
0.05515	0.115625	0.05
0.055175	0.115625	0.05
0.0552	0.115625	0.06875
0.055225	0.119375	0.025
0.05525	0.119375	0.1
0.055275	0.119375	0.03125
0.0553	0.119375	0.05
0.055325	0.119375	0.175
0.05535	0.119375	-0.00625
0.055375	0.119375	0.08125
0.0554	0.119375	0.16875
0.055425	0.119375	0.075
0.05545	0.119375	0.10625
0.055475	0.12875	0.025
0.0555	0.12875	-0.0125
0.055525	0.12875	0.1375
0.05555	0.12875	0.13125
0.055575	0.12875	0.075
0.0556	0.12875	0.05625
0.055625	0.12875	0.10625
0.05565	0.12875	0.05
0.055675	0.12875	0.0875
0.0557	0.12875	0.075
0.055725	0.140625	0.18125
0.05575	0.140625	0.14375
0.055775	0.140625	0.1375
0.0558	0.140625	0.11875
0.055825	0.140625	0.10625
0.05585	0.140625	0.06875
0.055875	0.140625	0.16875
0.0559	0.140625	0.10625
0.055925	0.140625	0.1
0.05595	0.140625	0.08125
0.055975	0.124375	0.0875
0.056	0.124375	0.13125
0.056025	0.124375	0.19375
0.05605	0.124375	0.1
0.056075	0.124375	0.15
0.0561	0.124375	0.09375
0.056125	0.124375	0.1
0.05615	0.124375	0.1125
0.056175	0.124375	0.075
0.0562	0.124375	0.15
0.056225	0.12	0.175
0.05625	0.12	0.04375
0.056275	0.12	0.05
0.0563	0.12	0.01875
0.056325	0.12	0.0375
0.05635	0.12	0.1
0.056375	0.12	0.1625
0.0564	0.12	0.0625
0.056425	0.12	0.18125
0.05645	0.12	0.1625
0.056475	0.104375	0.15
0.0565	0.104375	0.08125
0.056525	0.104375	0.175
0.05655	0.104375	0.1125
0.056575	0.104375	0.05625
0.0566	0.104375	0.175
0.056625	0.104375	0.18125
0.05665	0.104375	0.1875
0.056675	0.104375	0.2125
0.0567	0.104375	0.11875
0.056725	0.099375	0.08125
0.05675	0.099375	0.20625
0.056775	0.099375	0.06875
0.0568	0.099375	0.10625
0.056825	0.099375	0.13125
0.05685	0.099375	0.10625
0.056875	0.099375	0.10625
0.0569	0.099375	0.05625
0.056925	0.099375	0.0375
0.05695	0.099375	0.13125
0.056975	0.11625	0.1375
0.057	0.11625	0.18125
0.057025	0.11625	0.05
0.05705	0.11625	0.125
0.057075	0.11625	0.15625
0.0571	0.11625	0.15
0.057125	0.11625	0.0625
0.05715	0.11625	0.1875
0.057175	0.11625	0.1375
0.0572	0.11625	0.18125
0.057225	0.120625	0.13125
0.05725	0.120625	0.1375
0.057275	0.120625	0.1375
0.0573	0.120625	0.04375
0.057325	0.120625	0.1
0.05735	0.120625	0.1
0.057375	0.120625	0.0125
0.0574	0.120625	0.0875
0.057425	0.120625	-0.00625
0.05745	0.120625	0.075
0.057475	0.143125	0.15
0.0575	0.143125	0.05
0.057525	0.143125	0.13125
0.05755	0.143125	0.11875
0.057575	0.143125	0.0875
0.0576	0.143125	0.08125
0.057625	0.143125	0.075
0.05765	0.143125	0.1125
0.057675	0.143125	0.1125
0.0577	0.143125	0.06875
0.057725	0.144375	0.125
0.05775	0.144375	0.175
0.057775	0.144375	0.10625
0.0578	0.144375	0.15625
0.057825	0.144375	0.15
0.05785	0.144375	0.16875
0.057875	0.144375	0.1
0.0579	0.144375	0.05625
0.057925	0.144375	0.10625
0.05795	0.144375	0.125
0.057975	0.125625	0.1375
0.058	0.125625	0.03125
0.058025	0.125625	0.2
0.05805	0.125625	0.08125
0.058075	0.125625	0.05625
0.0581	0.125625	0.10625
0.058125	0.125625	0.1125
0.05815	0.125625	0.0875
0.058175	0.125625	0.05625
0.0582	0.125625	0.125
0.058225	0.121875	0.11875
0.05825	0.121875	0.09375
0.058275	0.121875	0.13125
0.0583	0.121875	0.10625
0.058325	0.121875	0.13125
0.05835	0.121875	0.0625
0.058375	0.121875	0.11875
0.0584	0.121875	0.1875
0.058425	0.121875	0.18125
0.05845	0.121875	0.15625
0.058475	0.093125	0.0875
0.0585	0.093125	0.15625
0.058525	0.093125	0.11875
0.05855	0.093125	0.1125
0.058575	0.093125	0.10625
0.0586	0.093125	0.15625
0.058625	0.093125	0.10625
0.05865	0.093125	0.05
0.058675	0.093125	0.1625
0.0587	0.093125	0.1
0.058725	0.098125	0.1
0.05875	0.098125	0.1625
0.058775	0.098125	0.11875
0.0588	0.098125	0.06875
0.058825	0.098125	0.05625
0.05885	0.098125	0.06875
0.058875	0.098125	0.1375
0.0589	0.098125	0.16875
0.058925	0.098125	0.125
0.05895	0.098125	0.1125
0.058975	0.1175	0.08125
0.059	0.1175	0.11875
0.059025	0.1175	0.15
0.05905	0.1175	0.15
0.059075	0.1175	0.0625
0.0591	0.1175	0.1125
0.059125	0.1175	0.13125
0.05915	0.1175	0.15625
0.059175	0.1175	0.1875
0.0592	0.1175	0.10625
0.059225	0.12625	0.09375
0.05925	0.12625	0.16875
0.059275	0.12625	0.10625
0.0593	0.12625	0.04375
0.059325	0.12625	0.13125
0.05935	0.12625	0.1125
0.059375	0.12625	0.05625
0.0594	0.12625	0.01875
0.059425	0.12625	0.06875
0.05945	0.12625	0.14375
0.059475	0.15	0.15
0.0595	0.15	0.15625
0.059525	0.15	0.0625
0.05955	0.15	0.23125
0.059575	0.15	0.0875
0.0596	0.15	0.1125
0.059625	0.15	0.075
0.05965	0.15	0.05625
0.059675	0.15	0.0625
0.0597	0.15	0.04375
0.059725	0.139375	0.05
0.05975	0.139375	0.08125
0.059775	0.139375	0.05625
0.0598	0.139375	0.09375
0.059825	0.139375	0.125
0.05985	0.139375	0.04375
0.059875	0.139375	0.10625
0.0599	0.139375	0.03125
0.059925	0.139375	0.05625
0.05995	0.139375	0.08125
0.059975	0.125625	0.05625
0.06	0.125625	0.11875
0.060025	0.125625	0.03125
0.06005	0.125625	0.1
0.060075	0.125625	-0.025
0.0601	0.125625	0.08125
0.060125	0.125625	-0.08125
0.06015	0.125625	-0.05
0.060175	0.125625	0.09375
0.0602	0.125625	0.1375
0.060225	0.1175	0
0.06025	0.1175	0.06875
0.060275	0.1175	0.14375
0.0603	0.1175	0.10625
0.060325	0.1175	0.06875
0.06035	0.1175	0.06875
0.060375	0.1175	0.1375
0.0604	0.1175	0.18125
0.060425	0.1175	0.16875
0.06045	0.1175	0.16875
0.060475	0.096875	0.1625
0.0605	0.096875	0.19375
0.060525	0.096875	0.15625
0.06055	0.096875	0.125
0.060575	0.096875	0.15
0.0606	0.096875	0.125
0.060625	0.096875	0.13125
0.06065	0.096875	0.2125
0.060675	0.096875	0.1375
0.0607	0.096875	0.175
0.060725	0.116875	0.18125
0.06075	0.116875	0.175
0.060775	0.116875	0.16875
0.0608	0.116875	0.20625
0.060825	0.116875	0.2625
0.06085	0.116875	0.20625
0.060875	0.116875	0.29375
0.0609	0.116875	0.3
0.060925	0.116875	0.23125
0.06095	0.116875	0.175
0.060975	0.12	0.2375
0.061	0.12	0.26875
0.061025	0.12	0.31875
0.06105	0.12	0.31875
0.061075	0.12	0.2625
0.0611	0.12	0.31875
0.061125	0.12	0.20625
0.06115	0.12	0.2875
0.061175	0.12	0.25
0.0612	0.12	0.33125
0.061225	0.12	0.225
0.06125	0.12	0.26875
0.061275	0.12	0.1875
0.0613	0.12	0.2625
0.061325	0.12	0.24375
0.06135	0.12	0.26875
0.061375	0.12	0.30625
0.0614	0.12	0.1875
0.061425	0.12	0.225
0.06145	0.12	0.2375
0.061475	0.148125	0.2375
0.0615	0.148125	0.19375
0.061525	0.148125	0.36875
0.06155	0.148125	0.29375
0.061575	0.148125	0.2625
0.0616	0.148125	0.2875
0.061625	0.148125	0.31875
0.06165	0.148125	0.3375
0.061675	0.148125	0.29375
0.0617	0.148125	0.3375
0.061725	0.133125	0.28125
0.06175	0.133125	0.2875
0.061775	0.133125	0.2125
0.0618	0.133125	0.25625
0.061825	0.133125	0.26875
0.06185	0.133125	0.18125
0.061875	0.133125	0.2625
0.0619	0.133125	0.33125
0.061925	0.133125	0.225
0.06195	0.133125	0.2875
0.061975	0.125	0.24375
0.062	0.125	0.1875
0.062025	0.125	0.2
0.06205	0.125	0.2625
0.062075	0.125	0.35625
0.0621	0.125	0.35625
0.062125	0.125	0.2
0.06215	0.125	0.3375
0.062175	0.125	0.35
0.0622	0.125	0.2875
0.062225	0.125	0.2875
0.06225	0.125	0.33125
0.062275	0.125	0.24375
0.0623	0.125	0.20625
0.062325	0.125	0.325
0.06235	0.125	0.28125
0.062375	0.125	0.21875
0.0624	0.125	0.2625
0.062425	0.125	0.21875
0.06245	0.125	0.25
0.062475	0.098125	0.25
0.0625	0.098125	0.225
0.062525	0.098125	0.25625
0.06255	0.098125	0.31875
0.062575	0.098125	0.33125
0.0626	0.098125	0.175
0.062625	0.098125	0.275
0.06265	0.098125	0.33125
0.062675	0.098125	0.2125
0.0627	0.098125	0.3125
0.062725	0.116875	0.3125
0.06275	0.116875	0.29375
0.062775	0.116875	0.2375
0.0628	0.116875	0.24375
0.062825	0.116875	0.29375
0.06285	0.116875	0.175
0.062875	0.116875	0.3375
0.0629	0.116875	0.2625
0.062925	0.116875	0.26875
0.06295	0.116875	0.28125
0.062975	0.128125	0.20625
0.063	0.128125	0.34375
0.063025	0.128125	0.175
0.06305	0.128125	0.28125
0.063075	0.128125	0.24375
0.0631	0.128125	0.34375
0.063125	0.128125	0.20625
0.06315	0.128125	0.1625
0.063175	0.128125	0.24375
0.0632	0.128125	0.1375
0.063225	0.131875	0.21875
0.06325	0.131875	0.20625
0.063275	0.131875	0.26875
0.0633	0.131875	0.26875
0.063325	0.131875	0.24375
0.06335	0.131875	0.1875
0.063375	0.131875	0.25625
0.0634	0.131875	0.2125
0.063425	0.131875	0.20625
0.06345	0.131875	0.26875
0.063475	0.15125	0.31875
0.0635	0.15125	0.25
0.063525	0.15125	0.21875
0.06355	0.15125	0.20625
0.063575	0.15125	0.23125
0.0636	0.15125	0.21875
0.063625	0.15125	0.21875
0.06365	0.15125	0.28125
0.063675	0.15125	0.2
0.0637	0.15125	0.33125
0.063725	0.13125	0.21875
0.06375	0.13125	0.16875
0.063775	0.13125	0.3375
0.0638	0.13125	0.3
0.063825	0.13125	0.19375
0.06385	0.13125	0.25
0.063875	0.13125	0.16875
0.0639	0.13125	0.2
0.063925	0.13125	0.2
0.06395	0.13125	0.25
0.063975	0.124375	0.23125
0.064	0.124375	0.23125
0.064025	0.124375	0.16875
0.06405	0.124375	0.11875
0.064075	0.124375	0.26875
0.0641	0.124375	0.325
0.064125	0.124375	0.26875
0.06415	0.124375	0.175
0.064175	0.124375	0.175
0.0642	0.124375	0.20625
0.064225	0.1125	0.16875
0.06425	0.1125	0.23125
0.064275	0.1125	0.19375
0.0643	0.1125	0.15625
0.064325	0.1125	0.15
0.06435	0.1125	0.2375
0.064375	0.1125	0.2625
0.0644	0.1125	0.225
0.064425	0.1125	0.09375
0.06445	0.1125	0.16875
0.064475	0.086875	0.18125
0.0645	0.086875	0.28125
0.064525	0.086875	0.29375
0.06455	0.086875	0.3
0.064575	0.086875	0.25
0.0646	0.086875	0.2
0.064625	0.086875	0.1625
0.06465	0.086875	0.21875
0.064675	0.086875	0.18125
0.0647	0.086875	0.175
0.064725	0.10375	0.24375
0.06475	0.10375	0.10625
0.064775	0.10375	0.19375
0.0648	0.10375	0.2125
0.064825	0.10375	0.175
0.06485	0.10375	0.1
0.064875	0.10375	0.20625
0.0649	0.10375	0.24375
0.064925	0.10375	0.25625
0.06495	0.10375	0.275
0.064975	0.099375	0.1875
0.065	0.099375	0.21875
0.065025	0.099375	0.1625
0.06505	0.099375	0.225
0.065075	0.099375	0.23125
0.0651	0.099375	0.29375
0.065125	0.099375	0.2125
0.06515	0.099375	0.19375
0.065175	0.099375	0.2
0.0652	0.099375	0.25
0.065225	0.1075	0.175
0.06525	0.1075	0.18125
0.065275	0.1075	0.16875
0.0653	0.1075	0.25625
0.065325	0.1075	0.11875
0.06535	0.1075	0.1625
0.065375	0.1075	0.21875
0.0654	0.1075	0.2375
0.065425	0.1075	0.225
0.06545	0.1075	0.225
0.065475	0.1175	0.21875
0.0655	0.1175	0.2375
0.065525	0.1175	0.1625
0.06555	0.1175	0.1375
0.065575	0.1175	0.14375
0.0656	0.1175	0.125
0.065625	0.1175	0.1375
0.06565	0.1175	0.175
0.065675	0.1175	0.21875
0.0657	0.1175	0.10625
0.065725	0.093125	0.19375
0.06575	0.093125	0.23125
0.065775	0.093125	0.1875
0.0658	0.093125	0.28125
0.065825	0.093125	0.1
0.06585	0.093125	0.1375
0.065875	0.093125	0.2125
0.0659	0.093125	0.20625
0.065925	0.093125	0.2
0.06595	0.093125	0.1875
0.065975	0.080625	0.2125
0.066	0.080625	0.25
0.066025	0.080625	0.25
0.06605	0.080625	0.24375
0.066075	0.080625	0.225
0.0661	0.080625	0.33125
0.066125	0.080625	0.19375
0.06615	0.080625	0.175
0.066175	0.080625	0.225
0.0662	0.080625	0.1125
0.066225	0.0625	0.14375
0.06625	0.0625	0.10625
0.066275	0.0625	0.19375
0.0663	0.0625	0.20625
0.066325	0.0625	0.225
0.06635	0.0625	0.225
0.066375	0.0625	0.25625
0.0664	0.0625	0.125
0.066425	0.0625	0.175
0.06645	0.0625	0.1
0.066475	0.059375	0.1875
0.0665	0.059375	0.11875
0.066525	0.059375	0.16875
0.06655	0.059375	0.1375
0.066575	0.059375	0.2875
0.0666	0.059375	0.10625
0.066625	0.059375	0.24375
0.06665	0.059375	0.1875
0.066675	0.059375	0.13125
0.0667	0.059375	0.1875
0.066725	0.075625	0.1875
0.06675	0.075625	0.24375
0.066775	0.075625	0.125
0.0668	0.075625	0.175
0.066825	0.075625	0.2
0.06685	0.075625	0.3125
0.066875	0.075625	0.125
0.0669	0.075625	0.0875
0.066925	0.075625	0.2125
0.06695	0.075625	0.16875
0.066975	0.085	0.18125
0.067	0.085	0.16875
0.067025	0.085	0.24375
0.06705	0.085	0.2375
0.067075	0.085	0.1875
0.0671	0.085	0.26875
0.067125	0.085	0.275
0.06715	0.085	0.16875
0.067175	0.085	0.18125
0.0672	0.085	0.1
0.067225	0.10875	0.225
0.06725	0.10875	0.16875
0.067275	0.10875	0.1625
0.0673	0.10875	0.1625
0.067325	0.10875	0.1625
0.06735	0.10875	0.16875
0.067375	0.10875	0.225
0.0674	0.10875	0.20625
0.067425	0.10875	0.2
0.06745	0.10875	0.19375
0.067475	0.115625	0.2
0.0675	0.115625	0.20625
0.067525	0.115625	0.2625
0.06755	0.115625	0.20625
0.067575	0.115625	0.1375
0.0676	0.115625	0.1875
0.067625	0.115625	0.08125
0.06765	0.115625	0.16875
0.067675	0.115625	0.1875
0.0677	0.115625	0.13125
0.067725	0.118125	0.20625
0.06775	0.118125	0.14375
0.067775	0.118125	0.225
0.0678	0.118125	0.20625
0.067825	0.118125	0.14375
0.06785	0.118125	0.09375
0.067875	0.118125	0.25
0.0679	0.118125	0.2375
0.067925	0.118125	0.1625
0.06795	0.118125	0.1875
0.067975	0.131875	0.15625
0.068	0.131875	0.16875
0.068025	0.131875	0.13125
0.06805	0.131875	0.25
0.068075	0.131875	0.09375
0.0681	0.131875	0.15
0.068125	0.131875	0.16875
0.06815	0.131875	0.15
0.068175	0.131875	0.1625
0.0682	0.131875	0.13125
0.068225	0.119375	0.2
0.06825	0.119375	0.1625
0.068275	0.119375	0.14375
0.0683	0.119375	0.1625
0.068325	0.119375	0.14375
0.06835	0.119375	0.18125
0.068375	0.119375	0.1375
0.0684	0.119375	0.1
0.068425	0.119375	0.0625
0.06845	0.119375	0.1625
0.068475	0.135625	0.15
0.0685	0.135625	0.18125
0.068525	0.135625	0.175
0.06855	0.135625	0.1875
0.068575	0.135625	0.11875
0.0686	0.135625	0.1875
0.068625	0.135625	0.19375
0.06865	0.135625	0.24375
0.068675	0.135625	0.20625
0.0687	0.135625	0.1875
0.068725	0.161875	0.2125
0.06875	0.161875	0.15
0.068775	0.161875	0.10625
0.0688	0.161875	0.14375
0.068825	0.161875	0.20625
0.06885	0.161875	0.175
0.068875	0.161875	0.1875
0.0689	0.161875	0.11875
0.068925	0.161875	0.11875
0.06895	0.161875	0.1625
0.068975	0.166875	0.1875
0.069	0.166875	0.13125
0.069025	0.166875	0.11875
0.06905	0.166875	0.2625
0.069075	0.166875	0.2
0.0691	0.166875	0.18125
0.069125	0.166875	0.175
0.06915	0.166875	0.14375
0.069175	0.166875	0.1875
0.0692	0.166875	0.11875
0.069225	0.18875	0.0875
0.06925	0.18875	0.23125
0.069275	0.18875	0.2
0.0693	0.18875	0.1125
0.069325	0.18875	0.19375
0.06935	0.18875	0.1875
0.069375	0.18875	0.18125
0.0694	0.18875	0.225
0.069425	0.18875	0.15625
0.06945	0.18875	0.21875
0.069475	0.170625	0.15625
0.0695	0.170625	0.1625
0.069525	0.170625	0.20625
0.06955	0.170625	0.04375
0.069575	0.170625	0.15625
0.0696	0.170625	0.1
0.069625	0.170625	0.13125
0.06965	0.170625	0.175
0.069675	0.170625	0.15625
0.0697	0.170625	0.21875
0.069725	0.15125	0.10625
0.06975	0.15125	0.25625
0.069775	0.15125	0.09375
0.0698	0.15125	0.13125
0.069825	0.15125	0.2
0.06985	0.15125	0.21875
0.069875	0.15125	0.175
0.0699	0.15125	0.20625
0.069925	0.15125	0.225
0.06995	0.15125	0.16875
0.069975	0.141875	0.19375
0.07	0.141875	0.20625
0.070025	0.141875	0.0875
0.07005	0.141875	0.20625
0.070075	0.141875	0.05
0.0701	0.141875	0.175
0.070125	0.141875	0.18125
0.07015	0.141875	0.15
0.070175	0.141875	0.225
0.0702	0.141875	0.18125
0.070225	0.110625	0.2
0.07025	0.110625	0.1125
0.070275	0.110625	0.18125
0.0703	0.110625	0.1375
0.070325	0.110625	0.16875
0.07035	0.110625	0.15
0.070375	0.110625	0.1625
0.0704	0.110625	0.15
0.070425	0.110625	0.1625
0.07045	0.110625	0.1875
0.070475	0.1225	0.15625
0.0705	0.1225	0.1
0.070525	0.1225	0.1875
0.07055	0.1225	0.1125
0.070575	0.1225	0.14375
0.0706	0.1225	0.18125
0.070625	0.1225	0.16875
0.07065	0.1225	0.15625
0.070675	0.1225	0.0375
0.0707	0.1225	0.14375
0.070725	0.129375	0.11875
0.07075	0.129375	0.24375
0.070775	0.129375	0.06875
0.0708	0.129375	0.1875
0.070825	0.129375	0.1625
0.07085	0.129375	0.15625
0.070875	0.129375	0.1375
0.0709	0.129375	0.0875
0.070925	0.129375	0.09375
0.07095	0.129375	0.21875
0.070975	0.13125	0.1875
0.071	0.13125	0.1875
0.071025	0.13125	0.05
0.07105	0.13125	0.15
0.071075	0.13125	0.16875
0.0711	0.13125	0.15
0.071125	0.13125	0.175
0.07115	0.13125	0.18125
0.071175	0.13125	0.19375
0.0712	0.13125	0.1125
0.071225	0.16	0.15
0.07125	0.16	0.15
0.071275	0.16	0.24375
0.0713	0.16	0.10625
0.071325	0.16	0.1375
0.07135	0.16	0.16875
0.071375	0.16	0.10625
0.0714	0.16	0.16875
0.071425	0.16	0.2125
0.07145	0.16	0.13125
0.071475	0.140625	0.175
0.0715	0.140625	0.175
0.071525	0.140625	0.10625
0.07155	0.140625	0.19375
0.071575	0.140625	0.06875
0.0716	0.140625	0.05625
0.071625	0.140625	0.11875
0.07165	0.140625	0.16875
0.071675	0.140625	0.14375
0.0717	0.140625	0.16875
0.071725	0.12625	0.15625
0.07175	0.12625	0.15
0.071775	0.12625	0.0375
0.0718	0.12625	0.2
0.071825	0.12625	0.13125
0.07185	0.12625	0.11875
0.071875	0.12625	0.09375
0.0719	0.12625	0.0125
0.071925	0.12625	0.20625
0.07195	0.12625	0.2
0.071975	0.124375	0.18125
0.072	0.124375	0.23125
0.072025	0.124375	0.1125
0.07205	0.124375	0.175
0.072075	0.124375	0.15
0.0721	0.124375	0.13125
0.072125	0.124375	0.075
0.07215	0.124375	0.13125
0.072175	0.124375	0.1625
0.0722	0.124375	0.15625
0.072225	0.09625	0.1625
0.07225	0.09625	0.14375
0.072275	0.09625	0.125
0.0723	0.09625	0.13125
0.072325	0.09625	0.1875
0.07235	0.09625	0.10625
0.072375	0.09625	0.125
0.0724	0.09625	0.1375
0.072425	0.09625	0.04375
0.07245	0.09625	0.11875
0.072475	0.119375	0.1375
0.0725	0.119375	0.3
0.072525	0.119375	0.1
0.07255	0.119375	0.1
0.072575	0.119375	0.1125
0.0726	0.119375	0.15625
0.072625	0.119375	0.1375
0.07265	0.119375	0.075
0.072675	0.119375	0.16875
0.0727	0.119375	0.1625
0.072725	0.13375	0.125
0.07275	0.13375	0.11875
0.072775	0.13375	0.16875
0.0728	0.13375	0.2
0.072825	0.13375	0.20625
0.07285	0.13375	0.13125
0.072875	0.13375	0.11875
0.0729	0.13375	0.05625
0.072925	0.13375	0.16875
0.07295	0.13375	0.0625
0.072975	0.133125	0.14375
0.073	0.133125	0.13125
0.073025	0.133125	0.13125
0.07305	0.133125	0.1375
0.073075	0.133125	0.0625
0.0731	0.133125	0.175
0.073125	0.133125	0.06875
0.07315	0.133125	0.13125
0.073175	0.133125	0.075
0.0732	0.133125	0.09375
0.073225	0.15375	0.19375
0.07325	0.15375	0.13125
0.073275	0.15375	0.13125
0.0733	0.15375	0.20625
0.073325	0.15375	0.15
0.07335	0.15375	0.075
0.073375	0.15375	0.09375
0.0734	0.15375	0.09375
0.073425	0.15375	0.13125
0.07345	0.15375	0.0375
0.073475	0.131875	0.15625
0.0735	0.131875	0.1375
0.073525	0.131875	0.1625
0.07355	0.131875	0.1625
0.073575	0.131875	0.125
0.0736	0.131875	0.1375
0.073625	0.131875	0.175
0.07365	0.131875	0.11875
0.073675	0.131875	0.14375
0.0737	0.131875	0.00625
0.073725	0.1275	0.1875
0.07375	0.1275	0.1625
0.073775	0.1275	0.1375
0.0738	0.1275	0.08125
0.073825	0.1275	0.1375
0.07385	0.1275	0.1125
0.073875	0.1275	0.0375
0.0739	0.1275	0.1875
0.073925	0.1275	0.11875
0.07395	0.1275	0.2125
0.073975	0.119375	0.0875
0.074	0.119375	0.06875
0.074025	0.119375	0.13125
0.07405	0.119375	0.15625
0.074075	0.119375	0.1375
0.0741	0.119375	0.075
0.074125	0.119375	0.0125
0.07415	0.119375	0.0875
0.074175	0.119375	0.06875
0.0742	0.119375	0.13125
0.074225	0.096875	0.1125
0.07425	0.096875	0.15625
0.074275	0.096875	0.16875
0.0743	0.096875	0.18125
0.074325	0.096875	0.16875
0.07435	0.096875	0.16875
0.074375	0.096875	0.09375
0.0744	0.096875	0.1
0.074425	0.096875	0.14375
0.07445	0.096875	0.10625
0.074475	0.119375	0.15
0.0745	0.119375	0.05625
0.074525	0.119375	0.125
0.07455	0.119375	0.15
0.074575	0.119375	0.14375
0.0746	0.119375	0.225
0.074625	0.119375	0.25
0.07465	0.119375	0.1875
0.074675	0.119375	0.1375
0.0747	0.119375	0.15625
0.074725	0.125	0.125
0.07475	0.125	0.21875
0.074775	0.125	0.09375
0.0748	0.125	0.1625
0.074825	0.125	-0.01875
0.07485	0.125	0.1625
0.074875	0.125	0.0875
0.0749	0.125	0.05625
0.074925	0.125	0.0875
0.07495	0.125	0.16875
0.074975	0.139375	0.10625
0.075	0.139375	0.2
0.075025	0.139375	0.14375
0.07505	0.139375	0.19375
0.075075	0.139375	0.05625
0.0751	0.139375	0.1125
0.075125	0.139375	0.03125
